Data from 20250703_urea_0.1M_MAYP1162681_04-31-05-705.txt Node
Date: Fri Jul 04 04:31:05 BST 2025
User: adleo
Spectrometer: MAYP116268
Trigger mode: 0
Integration Time (sec): 1.000000E0
Scans to average: 1
Electric dark correction enabled: true
Nonlinearity correction enabled: true
Boxcar width: 10
XAxis mode: Wavelengths
Number of Pixels in Spectrum: 2068
>>>>>Begin Spectral Data<<<<<
179.565	1279.58
179.642	1337.56
179.718	1384.01
179.795	1426.18
179.871	1459.6
179.948	1477.49
180.024	1501.61
180.101	1523.82
180.177	1538.97
180.254	1564.49
180.33	1588.85
180.407	1647.12
180.483	1747.51
180.56	1843.72
180.636	1933.7
180.712	1918.9
180.789	1929.41
180.865	1941.91
180.942	1950.52
181.018	1963.26
181.095	1979.2
181.171	1985.33
181.248	1987.8
181.324	2004.45
181.4	2011.97
181.477	2026.33
181.553	2043.35
181.63	2063.23
181.706	2079.64
181.782	2086.2
181.859	2084.96
181.935	2087.3
182.011	2082.59
182.088	2101.33
182.164	2120.13
182.24	2132.3
182.317	2145.28
182.393	2143.29
182.469	2159.27
182.546	2177.92
182.622	2181.06
182.698	2174.02
182.775	2182.72
182.851	2199.61
182.927	2190.38
183.003	2185.01
183.08	2175.78
183.156	2183.06
183.232	2176.68
183.308	2167.69
183.385	2178.77
183.461	2195.57
183.537	2199.14
183.613	2214.6
183.69	2204.89
183.766	2195.09
183.842	2205.51
183.918	2212.17
183.995	2227.35
184.071	2232.15
184.147	2222.64
184.223	2212.74
184.299	2225.64
184.375	2215.51
184.452	2220.55
184.528	2271.43
184.604	2282.37
184.68	2297.12
184.756	2304.87
184.832	2312.54
184.908	2314.25
184.985	2313.72
185.061	2296.07
185.137	2306.26
185.213	2293.89
185.289	2295.41
185.365	2286.75
185.441	2282.14
185.517	2292.28
185.593	2287.04
185.669	2281.04
185.745	2291.75
185.822	2309.73
185.898	2301.88
185.974	2311.49
186.05	2301.68
186.126	2267.66
186.202	2262.61
186.278	2256.71
186.354	2247.19
186.43	2254.19
186.506	2255.48
186.582	2255.52
186.658	2263.61
186.734	2242.87
186.81	2247.81
186.886	2250.24
186.962	2265.51
187.038	2264.56
187.114	2257.56
187.19	2263.13
187.266	2252.52
187.341	2253.76
187.417	2243.15
187.493	2243.24
187.569	2244.67
187.645	2239.48
187.721	2227.78
187.797	2231.2
187.873	2237.67
187.949	2233.96
188.025	2226.44
188.101	2227.49
188.176	2231.91
188.252	2227.82
188.328	2236.19
188.404	2235
188.48	2232.15
188.556	2223.82
188.632	2221.68
188.707	2220.11
188.783	2219.92
188.859	2214.16
188.935	2204.26
189.011	2216.3
189.086	2210.17
189.162	2202.98
189.238	2200.55
189.314	2197.27
189.39	2193.04
189.465	2184.09
189.541	2197.99
189.617	2180.62
189.693	2177.82
189.768	2180.43
189.844	2207.52
189.92	2200.34
189.996	2209.66
190.071	2218.61
190.147	2217.47
190.223	2227.51
190.298	2220.32
190.374	2207.43
190.45	2221.27
190.526	2232.5
190.601	2225.84
190.677	2228.03
190.753	2256.55
190.828	2259.64
190.904	2279.35
190.98	2294.77
191.055	2307.19
191.131	2300.48
191.207	2324.69
191.282	2334.21
191.358	2326.41
191.433	2311.5
191.509	2323.77
191.585	2317.68
191.66	2320.3
191.736	2328.39
191.811	2318.16
191.887	2336.39
191.963	2359.38
192.038	2363.04
192.114	2359.81
192.189	2362.33
192.265	2359.28
192.34	2334.9
192.416	2335.85
192.491	2330.85
192.567	2335.85
192.642	2338.81
192.718	2337.76
192.793	2323.91
192.869	2317.01
192.944	2320.01
193.02	2326.67
193.095	2328.62
193.171	2338.76
193.246	2335.62
193.322	2333.43
193.397	2335.29
193.473	2320.72
193.548	2303.49
193.624	2312.06
193.699	2310.82
193.775	2328.48
193.85	2328.91
193.925	2338.81
194.001	2337.43
194.076	2324.44
194.152	2311.87
194.227	2302.16
194.302	2292.45
194.378	2297.5
194.453	2298.54
194.529	2308.63
194.604	2292.02
194.679	2285.31
194.755	2264.81
194.83	2278.71
194.905	2279.23
194.981	2288.56
195.056	2282.71
195.131	2289.37
195.207	2288.13
195.282	2279.47
195.357	2259.43
195.433	2272.66
195.508	2261.76
195.583	2267.76
195.659	2286.75
195.734	2294.03
195.809	2295.17
195.884	2306.54
195.96	2309.26
196.035	2326.44
196.11	2324.39
196.185	2337.91
196.261	2343.57
196.336	2375.6
196.411	2358.7
196.486	2364.7
196.561	2356.51
196.637	2365.08
196.712	2382.36
196.787	2383.41
196.862	2397.88
196.937	2409.73
197.013	2416.49
197.088	2426.92
197.163	2453.54
197.238	2470.93
197.313	2471.31
197.388	2485.69
197.464	2513.7
197.539	2522.89
197.614	2515.22
197.689	2526.84
197.764	2545.03
197.839	2569.37
197.914	2561.51
197.989	2585.8
198.065	2598.56
198.14	2652.46
198.215	2677.56
198.29	2686.57
198.365	2702.48
198.44	2715.58
198.515	2744.26
198.59	2759.94
198.665	2789.72
198.74	2794.53
198.815	2797.2
198.89	2819.54
198.965	2849.62
199.04	2847.29
199.115	2864.35
199.19	2908.91
199.265	2913.81
199.34	2923.58
199.415	2957.21
199.49	2981.61
199.565	2994.38
199.64	3017.03
199.715	3014.98
199.79	3024.99
199.865	3034.05
199.94	3032.28
200.015	3064.85
200.09	3072.63
200.165	3080.78
200.24	3087.31
200.315	3129.65
200.39	3142
200.464	3152.16
200.539	3152.78
200.614	3170.95
200.689	3194.41
200.764	3201.14
200.839	3219.06
200.914	3225.17
200.989	3216.15
201.063	3229.22
201.138	3209.77
201.213	3208.53
201.288	3188.07
201.363	3195.03
201.438	3195.7
201.512	3214.06
201.587	3195.31
201.662	3194.98
201.737	3210.19
201.812	3215.49
201.886	3181.21
201.961	3192.95
202.036	3180.37
202.111	3180.51
202.186	3150.05
202.26	3134.83
202.335	3112.17
202.41	3106.12
202.485	3087.81
202.559	3067.73
202.634	3042.65
202.709	3052.8
202.784	3037.4
202.858	3040.12
202.933	3022.52
203.008	3021.09
203.082	3001.69
203.157	3002.74
203.232	2965.61
203.306	2948.39
203.381	2922.16
203.456	2905.67
203.53	2887.49
203.605	2871.34
203.68	2856.79
203.754	2857.46
203.829	2848.31
203.904	2839.3
203.978	2840.68
204.053	2857.51
204.127	2856.55
204.202	2868.57
204.277	2867.47
204.351	2877.58
204.426	2888.02
204.5	2898.18
204.575	2879.49
204.65	2911.68
204.724	2927.86
204.799	2957.78
204.873	2977.48
204.948	3002.9
205.022	3019.96
205.097	3042.39
205.171	3090.98
205.246	3130.93
205.32	3167.3
205.395	3208.86
205.469	3237.62
205.544	3281.97
205.618	3306.73
205.693	3363.34
205.767	3397.61
205.842	3466.03
205.916	3507.79
205.991	3547.62
206.065	3606.26
206.14	3681.15
206.214	3735.16
206.289	3785.86
206.363	3862.69
206.438	3926.6
206.512	3998.48
206.586	4081.55
206.661	4157.31
206.735	4204.78
206.81	4273.38
206.884	4364.25
206.958	4425.33
207.033	4517.35
207.107	4604.92
207.181	4719.96
207.256	4799.1
207.33	4902.51
207.405	5004.77
207.479	5112.53
207.553	5210.09
207.628	5278.96
207.702	5376.13
207.776	5453.1
207.851	5554.62
207.925	5659.94
207.999	5754.16
208.073	5846.05
208.148	5952.12
208.222	6042.57
208.296	6176.3
208.371	6295.07
208.445	6406.44
208.519	6538.93
208.593	6654.25
208.668	6756.61
208.742	6861.84
208.816	6964.29
208.89	7085.52
208.965	7185.89
209.039	7299.04
209.113	7423.38
209.187	7555.99
209.261	7663.8
209.336	7800.68
209.41	7925.95
209.484	8041.35
209.558	8175.8
209.632	8300.22
209.707	8412.61
209.781	8541.32
209.855	8664.04
209.929	8793.1
210.003	8906.93
210.077	9007.87
210.151	9165.31
210.226	9295.26
210.3	9429.43
210.374	9560.24
210.448	9673.32
210.522	9789.68
210.596	9911.49
210.67	10024.68
210.744	10180.02
210.818	10317.92
210.892	10446.17
210.966	10547.63
211.041	10661.29
211.115	10756.15
211.189	10885.67
211.263	11011.62
211.337	11119.85
211.411	11245.68
211.485	11340.91
211.559	11456.91
211.633	11564.81
211.707	11638.26
211.781	11755.38
211.855	11823.88
211.929	11913.91
212.003	11993.1
212.077	12109.69
212.151	12207.45
212.225	12317.92
212.299	12403.1
212.373	12486.83
212.447	12578.27
212.52	12699.94
212.594	12793.94
212.668	12907.46
212.742	12983
212.816	13066.39
212.89	13156.73
212.964	13237.67
213.038	13333.12
213.112	13431.26
213.186	13538.23
213.26	13607.79
213.333	13643.61
213.407	13731.73
213.481	13822.26
213.555	13919.59
213.629	13978.55
213.703	14056.45
213.777	14140.57
213.85	14197.21
213.924	14317.43
213.998	14392.87
214.072	14466.96
214.146	14533.87
214.219	14600.01
214.293	14674.87
214.367	14747.95
214.441	14829.7
214.515	14897.04
214.588	14942.06
214.662	14980.39
214.736	15027.82
214.81	15096.36
214.883	15178.84
214.957	15230.9
215.031	15285.56
215.105	15326.2
215.178	15390.26
215.252	15448.29
215.326	15482.08
215.4	15530.48
215.473	15536.5
215.547	15578.97
215.621	15617.77
215.694	15684.43
215.768	15723.04
215.842	15769.36
215.915	15817.31
215.989	15841.37
216.063	15879.35
216.136	15936.41
216.21	15990.83
216.284	16057.01
216.357	16118.85
216.431	16167.96
216.504	16235.53
216.578	16318.53
216.652	16381.72
216.725	16434.97
216.799	16494.5
216.873	16557.54
216.946	16618.31
217.02	16665.64
217.093	16719.24
217.167	16749.17
217.24	16786.71
217.314	16835.05
217.387	16878.33
217.461	16930.04
217.535	17004.46
217.608	17043.35
217.682	17107.01
217.755	17164.85
217.829	17196.56
217.902	17244.94
217.976	17294.05
218.049	17335.79
218.123	17361.14
218.196	17413.91
218.27	17451.31
218.343	17483.26
218.417	17527.98
218.49	17571.59
218.563	17634.68
218.637	17682.87
218.71	17755.21
218.784	17816.7
218.857	17880.46
218.931	17932.46
219.004	17968.79
219.077	18016.55
219.151	18072.55
219.224	18103.05
219.298	18146.23
219.371	18207.67
219.444	18239
219.518	18289.21
219.591	18337.6
219.665	18407.57
219.738	18455.32
219.811	18499.71
219.885	18558.64
219.958	18605.53
220.031	18650.49
220.105	18704.42
220.178	18756.51
220.251	18796.75
220.325	18839.83
220.398	18885.47
220.471	18936.84
220.544	18992.64
220.618	19017.8
220.691	19064.45
220.764	19111.67
220.838	19158.99
220.911	19186.75
220.984	19255.76
221.057	19306.65
221.131	19347.66
221.204	19363.17
221.277	19424.42
221.35	19491.99
221.424	19523.45
221.497	19563.31
221.57	19598.63
221.643	19640.85
221.716	19681.18
221.79	19714.34
221.863	19752.02
221.936	19782.33
222.009	19819.68
222.082	19856.84
222.155	19897.32
222.229	19948.78
222.302	19988.3
222.375	20021.7
222.448	20076.39
222.521	20091.77
222.594	20117.84
222.667	20141.16
222.74	20181.98
222.814	20204.78
222.887	20220.25
222.96	20251.62
223.033	20294.85
223.106	20335.67
223.179	20366.12
223.252	20394.94
223.325	20416.78
223.398	20447.19
223.471	20467.14
223.544	20492.29
223.617	20524.87
223.69	20540.68
223.763	20546.17
223.837	20574.22
223.91	20599.57
223.983	20598.7
224.056	20612.34
224.129	20632.87
224.202	20666.32
224.275	20685.36
224.348	20688.44
224.42	20696.44
224.493	20703.96
224.566	20700.44
224.639	20714.32
224.712	20713.07
224.785	20722.03
224.858	20742.47
224.931	20737.89
225.004	20752.06
225.077	20757.65
225.15	20739.14
225.223	20755.48
225.296	20790.85
225.369	20779.14
225.442	20788.59
225.514	20800.97
225.587	20819.91
225.66	20838.61
225.733	20840.83
225.806	20852.54
225.879	20860.98
225.952	20860.11
226.025	20883.48
226.097	20923.15
226.17	20935.78
226.243	20929.32
226.316	20933.99
226.389	20949.56
226.461	20978.82
226.534	20989.76
226.607	20994.43
226.68	21028.36
226.753	21041.09
226.825	21020.7
226.898	21039.54
226.971	21043.98
227.044	21063.45
227.117	21073.28
227.189	21083.55
227.262	21108.66
227.335	21120.85
227.407	21125.14
227.48	21138.35
227.553	21139.07
227.626	21130.49
227.698	21132.32
227.771	21150.59
227.844	21146.63
227.916	21143.5
227.989	21124.51
228.062	21127.21
228.134	21167.46
228.207	21162.44
228.28	21164.95
228.352	21171.74
228.425	21174.25
228.498	21185.67
228.57	21175.75
228.643	21188.81
228.716	21179.31
228.788	21173.09
228.861	21169.77
228.934	21187.55
229.006	21193.77
229.079	21199.46
229.151	21182.16
229.224	21162.68
229.296	21162.35
229.369	21186.3
229.442	21194.74
229.514	21181.53
229.587	21185.29
229.659	21150.54
229.732	21152.27
229.804	21157.14
229.877	21180.18
229.949	21193.39
230.022	21213.82
230.094	21214.35
230.167	21208.43
230.239	21189.77
230.312	21184.13
230.384	21188.91
230.457	21182.11
230.529	21177.97
230.602	21167.12
230.674	21170.11
230.747	21183.12
230.819	21197.2
230.892	21157.05
230.964	21157.87
231.037	21161.1
231.109	21148.32
231.181	21155.6
231.254	21137.53
231.326	21125.53
231.399	21101.28
231.471	21080.9
231.544	21043.25
231.616	21038.58
231.688	21040.02
231.761	21031.35
231.833	21019.73
231.905	20993.9
231.978	20982.67
232.05	20966.09
232.122	20956.64
232.195	20945.7
232.267	20943.68
232.339	20913.03
232.412	20924.93
232.484	20904.74
232.556	20886.28
232.629	20897.89
232.701	20890.81
232.773	20882.62
232.846	20857.56
232.918	20859.15
232.99	20845.6
233.062	20840.01
233.135	20829.65
233.207	20798.13
233.279	20798.47
233.351	20783.87
233.424	20755.53
233.496	20726.61
233.568	20734.71
233.64	20701.02
233.713	20681.98
233.785	20654.61
233.857	20645.74
233.929	20603.81
234.001	20605.45
234.074	20602.51
234.146	20562.9
234.218	20533.45
234.29	20523.76
234.362	20504.78
234.434	20456.73
234.507	20418.66
234.579	20382.08
234.651	20345.84
234.723	20319.91
234.795	20294.13
234.867	20262.7
234.939	20266.27
235.012	20247.91
235.084	20222.27
235.156	20220.05
235.228	20189.45
235.3	20170.51
235.372	20145.93
235.444	20137.45
235.516	20088.34
235.588	20070.22
235.66	20052.01
235.732	20017.99
235.804	20041.02
235.876	20032.4
235.948	20025.6
236.02	20005.65
236.092	19981.02
236.164	19962.91
236.236	19939.97
236.308	19908.98
236.38	19893.66
236.452	19851.92
236.524	19837.8
236.596	19828.26
236.668	19807.92
236.74	19788.45
236.812	19767.59
236.884	19749.13
236.956	19726.24
237.028	19698.68
237.1	19658.97
237.172	19657.09
237.244	19657.33
237.316	19592.85
237.388	19555.36
237.46	19529.04
237.532	19518.59
237.604	19478.54
237.675	19477.48
237.747	19448.66
237.819	19419.46
237.891	19389.63
237.963	19360.24
238.035	19313.3
238.107	19239.13
238.178	19215.81
238.25	19180.39
238.322	19177.74
238.394	19131.04
238.466	19093.21
238.538	19062.28
238.609	19041.8
238.681	18978.76
238.753	18934.57
238.825	18900.07
238.897	18864.55
238.968	18843.78
239.04	18800.51
239.112	18801.57
239.184	18751.5
239.255	18724.13
239.327	18704.61
239.399	18675.22
239.471	18643.17
239.542	18617.58
239.614	18612.33
239.686	18560.38
239.758	18536.33
239.829	18486.75
239.901	18473.59
239.973	18453.45
240.044	18427.18
240.116	18390.56
240.188	18356.87
240.259	18319.91
240.331	18289.02
240.403	18274.23
240.474	18223.67
240.546	18186.28
240.618	18137.56
240.689	18096.07
240.761	18061.9
240.833	18040.31
240.904	18006.77
240.976	17975.78
241.048	17955.68
241.119	17925.08
241.191	17898.53
241.262	17891.78
241.334	17848.8
241.405	17807.88
241.477	17765.38
241.549	17731.35
241.62	17711.11
241.692	17684.13
241.763	17664.75
241.835	17627.4
241.906	17584.42
241.978	17537.33
242.049	17525.38
242.121	17509.33
242.192	17500.9
242.264	17456.56
242.335	17413.81
242.407	17382.54
242.478	17346.63
242.55	17314.54
242.621	17277.72
242.693	17237.86
242.764	17186.15
242.836	17151.06
242.907	17123.88
242.979	17093.47
243.05	17067.88
243.122	17024.22
243.193	16990.58
243.264	16939.44
243.336	16906.43
243.407	16890.77
243.479	16880.45
243.55	16849.32
243.622	16808.4
243.693	16766.04
243.764	16748.74
243.836	16693.31
243.907	16661.98
243.978	16622.94
244.05	16591.66
244.121	16538.07
244.192	16516.67
244.264	16474.11
244.335	16441.68
244.407	16389.96
244.478	16361.28
244.549	16322.29
244.62	16284.41
244.692	16250.43
244.763	16224.35
244.834	16179.77
244.906	16127.33
244.977	16090.7
245.048	16065.21
245.119	16021.88
245.191	15970.69
245.262	15918.39
245.333	15911.74
245.405	15881.95
245.476	15868.12
245.547	15837.51
245.618	15814.76
245.689	15781.22
245.761	15746.37
245.832	15717.06
245.903	15695.47
245.974	15669.73
246.045	15633.58
246.117	15617
246.188	15576.08
246.259	15536.89
246.33	15505.7
246.401	15478.8
246.473	15435.62
246.544	15402.74
246.615	15380.19
246.686	15355.22
246.757	15340.08
246.828	15288.84
246.899	15271.92
246.97	15224.25
247.042	15192.82
247.113	15168.05
247.184	15159.08
247.255	15126.06
247.326	15091.36
247.397	15062.1
247.468	15025.37
247.539	14998.66
247.61	14950.12
247.681	14926.21
247.752	14909
247.823	14872.56
247.894	14848.41
247.965	14817.99
248.037	14786.47
248.108	14746.85
248.179	14714.02
248.25	14677.19
248.321	14660.22
248.392	14612.26
248.463	14605.99
248.534	14562.99
248.605	14547.18
248.675	14509.58
248.746	14490.93
248.817	14473.19
248.888	14446.34
248.959	14407.44
249.03	14383.86
249.101	14363.67
249.172	14339.08
249.243	14283.36
249.314	14266.72
249.385	14234.48
249.456	14209.75
249.527	14170.17
249.598	14147.51
249.669	14120.32
249.739	14096.99
249.81	14074.58
249.881	14040.88
249.952	14004.44
250.023	13979.66
250.094	13928.85
250.165	13891.25
250.235	13859.77
250.306	13835.86
250.377	13803.61
250.448	13774.25
250.519	13725.37
250.59	13710.91
250.66	13678.42
250.731	13673.74
250.802	13650.17
250.873	13634.36
250.944	13608.04
251.014	13580.94
251.085	13585.14
251.156	13571.45
251.227	13561.66
251.297	13553.66
251.368	13535.82
251.439	13522.18
251.51	13508.44
251.58	13479.81
251.651	13453.87
251.722	13447.41
251.792	13400.55
251.863	13371.53
251.934	13369.22
252.005	13379.73
252.075	13353.94
252.146	13343.29
252.217	13338.42
252.287	13325.54
252.358	13295.99
252.429	13295.56
252.499	13263.7
252.57	13238
252.641	13223.68
252.711	13210.81
252.782	13166.66
252.852	13170.37
252.923	13146.65
252.994	13132.67
253.064	13126.02
253.135	13090.73
253.205	13053.9
253.276	13056.26
253.347	13052.94
253.417	13021.99
253.488	12989.21
253.558	12960.19
253.629	12938.11
253.699	12908.46
253.77	12898
253.841	12871.54
253.911	12849.27
253.982	12833.99
254.052	12813.55
254.123	12789.73
254.193	12758.26
254.264	12778.12
254.334	12738.68
254.405	12704.27
254.475	12668.02
254.546	12645.7
254.616	12647.48
254.687	12631.19
254.757	12605.78
254.827	12576.72
254.898	12561.39
254.968	12540.22
255.039	12517.81
255.109	12508.55
255.18	12482.28
255.25	12429.21
255.321	12416
255.391	12380.38
255.461	12379.32
255.532	12329.09
255.602	12312.7
255.673	12271.15
255.743	12233.41
255.813	12180.48
255.884	12171.85
255.954	12160
256.024	12154.02
256.095	12128.42
256.165	12099.41
256.235	12085.76
256.306	12061.76
256.376	12054.63
256.446	12044.79
256.517	12036.36
256.587	12020.02
256.657	12007.68
256.728	11995.77
256.798	11982.13
256.868	11959.33
256.938	11924
257.009	11920
257.079	11903.03
257.149	11910.55
257.219	11866.3
257.29	11863.94
257.36	11823.99
257.43	11814.83
257.5	11771.64
257.571	11749.61
257.641	11736.7
257.711	11708.4
257.781	11700.07
257.852	11686.52
257.922	11647.05
257.992	11618.95
258.062	11593.98
258.132	11580.44
258.202	11562.8
258.273	11543.85
258.343	11544.14
258.413	11529.15
258.483	11507.27
258.553	11481.05
258.623	11458.54
258.693	11450.3
258.764	11447.27
258.834	11451.6
258.904	11428.32
258.974	11410.64
259.044	11389.82
259.114	11381.77
259.184	11369.53
259.254	11345.96
259.324	11298.97
259.394	11290.1
259.464	11295.65
259.535	11274.58
259.605	11248.94
259.675	11224.37
259.745	11211.5
259.815	11178.25
259.885	11154.1
259.955	11169.62
260.025	11138.64
260.095	11118.73
260.165	11103.02
260.235	11104.47
260.305	11073.87
260.375	11047.94
260.445	11055.89
260.515	11058.06
260.585	11050.78
260.655	11028.76
260.725	11017.58
260.795	11011.31
260.865	11017.44
260.934	10985.1
261.004	10976.52
261.074	10963.61
261.144	10963.75
261.214	10956.23
261.284	10947.94
261.354	10938.98
261.424	10908.91
261.494	10916.38
261.564	10905.97
261.634	10901.82
261.703	10863.71
261.773	10856.29
261.843	10848
261.913	10818.07
261.983	10784.3
262.053	10772.06
262.123	10756.54
262.192	10728.16
262.262	10722.62
262.332	10683.25
262.402	10673.23
262.472	10649.76
262.541	10611.94
262.611	10603.17
262.681	10573.78
262.751	10565.35
262.821	10547.18
262.89	10520.63
262.96	10502.76
263.03	10499.58
263.1	10484.35
263.169	10474.38
263.239	10471.24
263.309	10479.24
263.379	10478.18
263.448	10459.92
263.518	10452.41
263.588	10438.77
263.657	10447.25
263.727	10447.78
263.797	10433.81
263.867	10417.77
263.936	10401.19
264.006	10403.51
264.076	10378.45
264.145	10363.47
264.215	10338.08
264.285	10333.84
264.354	10300.36
264.424	10279.55
264.494	10248.52
264.563	10223.57
264.633	10230.41
264.702	10210.75
264.772	10178.13
264.842	10155.83
264.911	10153.42
264.981	10118.35
265.05	10106.5
265.12	10082.6
265.19	10068.53
265.259	10072.05
265.329	10071.23
265.398	10055.91
265.468	10067.09
265.537	10057.89
265.607	10051.82
265.676	10049.65
265.746	10043.15
265.815	10048.3
265.885	10040.26
265.955	10023.78
266.024	10017.81
266.094	9978.41
266.163	9978.74
266.232	9971.95
266.302	9955.91
266.371	9945.94
266.441	9942.91
266.51	9941.99
266.58	9932.36
266.649	9907.31
266.719	9903.02
266.788	9894.4
266.858	9905.09
266.927	9867.62
266.996	9859
267.066	9846.67
267.135	9818.83
267.205	9809.77
267.274	9796
267.343	9797.83
267.413	9782.85
267.482	9781.12
267.552	9786.12
267.621	9758.62
267.69	9729.68
267.76	9725.63
267.829	9717.2
267.898	9701.65
267.968	9670.34
268.037	9659.07
268.106	9658.49
268.176	9625.98
268.245	9608.36
268.314	9582.59
268.384	9582.88
268.453	9568.91
268.522	9568.96
268.592	9573.68
268.661	9556.05
268.73	9553.84
268.799	9534.33
268.869	9542.47
268.938	9511.98
269.007	9489.83
269.076	9476.49
269.146	9479.96
269.215	9472.16
269.284	9479.96
269.353	9458.63
269.422	9453.86
269.492	9440.43
269.561	9396.08
269.63	9398.68
269.699	9384.04
269.768	9379.42
269.838	9372.92
269.907	9372.1
269.976	9340.61
270.045	9304.35
270.114	9298.77
270.183	9280.61
270.253	9268.29
270.322	9236.51
270.391	9228.52
270.46	9236.7
270.529	9242.96
270.598	9240.8
270.667	9223.46
270.736	9193.46
270.806	9194.76
270.875	9192.93
270.944	9184.31
271.013	9209.93
271.082	9194.09
271.151	9191.05
271.22	9160.96
271.289	9146.66
271.358	9138.91
271.427	9132.75
271.496	9128.08
271.565	9114.74
271.634	9105.74
271.703	9135.98
271.772	9142.96
271.841	9129.82
271.91	9103.29
271.979	9093.33
272.048	9065.74
272.117	9071.04
272.186	9063.24
272.255	9060.49
272.324	9059.82
272.393	9056.45
272.462	9035.65
272.531	9033.05
272.6	9016.15
272.669	9028.57
272.738	9025.34
272.807	9015.14
272.876	8995.98
272.945	9034.4
273.013	9031.7
273.082	9033.05
273.151	8979.56
273.22	8977.44
273.289	8972.72
273.358	8983.12
273.427	8971.61
273.496	8972.58
273.564	8961.99
273.633	8957.94
273.702	8938.49
273.771	8930.98
273.84	8923.96
273.909	8926.41
273.977	8927.57
274.046	8915.15
274.115	8915.44
274.184	8893.63
274.253	8881.74
274.322	8895.32
274.39	8857.91
274.459	8846.45
274.528	8818.54
274.597	8818.63
274.665	8807.85
274.734	8815.84
274.803	8809.15
274.872	8801.93
274.94	8786.77
275.009	8850.09
275.078	8841.19
275.147	8836.47
275.215	8826.27
275.284	8828.53
275.353	8820.01
275.421	8785.74
275.49	8805.86
275.559	8797.25
275.627	8789.79
275.696	8783.43
275.765	8783.19
275.833	8768.47
275.902	8770.11
275.971	8786.76
276.039	8796
276.108	8796.77
276.177	8788.78
276.245	8769.86
276.314	8765.53
276.383	8775.2
276.451	8706.49
276.52	8705.33
276.588	8718.37
276.657	8724.15
276.725	8721.21
276.794	8717.36
276.863	8734.11
276.931	8707.78
277	8712.79
277.068	8722.46
277.137	8747.87
277.205	8743.45
277.274	8765.92
277.342	8770.3
277.411	8746.24
277.48	8734.35
277.548	8730.79
277.617	8739.84
277.685	8735.7
277.754	8735.84
277.822	8726.41
277.89	8741.58
277.959	8735.37
278.027	8715.68
278.096	8704.27
278.164	8725.07
278.233	8716.99
278.301	8709.77
278.37	8714.53
278.438	8699.42
278.507	8700.57
278.575	8671.36
278.643	8666.01
278.712	8650.66
278.78	8632.03
278.849	8646.56
278.917	8660.33
278.985	8655.95
279.054	8654.75
279.122	8666.54
279.191	8667.36
279.259	8665.38
279.327	8639.68
279.396	8653.54
279.464	8652.19
279.532	8659.9
279.601	8657.78
279.669	8649.5
279.737	8661
279.806	8668.32
279.874	8680.16
279.942	8682.42
280.011	8677.75
280.079	8685.07
280.147	8698.83
280.215	8713.75
280.284	8705.91
280.352	8689.78
280.42	8692.43
280.488	8684.73
280.557	8675.3
280.625	8680.35
280.693	8678.14
280.761	8682.76
280.83	8662.26
280.898	8676.26
280.966	8656.1
281.034	8619.51
281.102	8608.5
281.171	8603.78
281.239	8609.7
281.307	8595.79
281.375	8580.87
281.443	8604.46
281.512	8603.4
281.58	8607.54
281.648	8588.05
281.716	8588.67
281.784	8584.87
281.852	8579.91
281.92	8574.09
281.989	8590.4
282.057	8565.96
282.125	8610.49
282.193	8609.96
282.261	8610.05
282.329	8606.3
282.397	8612.36
282.465	8623.24
282.533	8640.51
282.601	8627.71
282.67	8606.29
282.738	8603.55
282.806	8616.25
282.874	8602.58
282.942	8599.26
283.01	8592.52
283.078	8600.18
283.146	8596.81
283.214	8604.03
283.282	8606.96
283.35	8622.7
283.418	8611.68
283.486	8618.94
283.554	8576.29
283.622	8576.1
283.69	8583.22
283.758	8578.12
283.826	8581.49
283.894	8584.57
283.962	8603.87
284.03	8621.97
284.098	8624.23
284.165	8616.05
284.233	8614.36
284.301	8607.96
284.369	8605.46
284.437	8597.23
284.505	8590.88
284.573	8607.87
284.641	8601.51
284.709	8611.14
284.777	8592.99
284.845	8602.48
284.912	8614.8
284.98	8617.25
285.048	8610.27
285.116	8610.51
285.184	8619.42
285.252	8617.06
285.319	8600.46
285.387	8590.64
285.455	8571.82
285.523	8577.26
285.591	8570.52
285.659	8568.89
285.726	8583.42
285.794	8566.72
285.862	8563.4
285.93	8564.51
285.997	8560.13
286.065	8554.55
286.133	8544.82
286.201	8541.94
286.269	8521.58
286.336	8506.37
286.404	8499.64
286.472	8511.48
286.539	8493.53
286.607	8471.25
286.675	8469.47
286.743	8476.78
286.81	8467.54
286.878	8482.36
286.946	8469.03
287.013	8477.93
287.081	8482.12
287.149	8462.77
287.216	8485.82
287.284	8485.92
287.352	8480.68
287.419	8472.78
287.487	8480.68
287.555	8483.32
287.622	8481.01
287.69	8493.14
287.758	8505.56
287.825	8502.09
287.893	8486.4
287.96	8489.63
288.028	8509.93
288.096	8516.43
288.163	8519.99
288.231	8511.04
288.298	8504.64
288.366	8524.08
288.433	8514.7
288.501	8507.48
288.569	8513.78
288.636	8503.63
288.704	8511.86
288.771	8522.69
288.839	8517.39
288.906	8521.53
288.974	8525.91
289.041	8521.34
289.109	8509.79
289.176	8524.95
289.244	8532.22
289.311	8552.58
289.379	8564.32
289.446	8564.99
289.514	8565.95
289.581	8564.22
289.649	8570.53
289.716	8574.42
289.783	8568.98
289.851	8586.98
289.918	8582.84
289.986	8593.43
290.053	8600.55
290.121	8602.72
290.188	8606.95
290.255	8638.24
290.323	8631.98
290.39	8625.44
290.458	8637.75
290.525	8650.84
290.592	8636.69
290.66	8639.15
290.727	8619.46
290.794	8636.07
290.862	8636.5
290.929	8645.26
290.996	8645.4
291.064	8652.77
291.131	8661.53
291.198	8671.78
291.266	8677.31
291.333	8683.67
291.4	8686.31
291.468	8698.78
291.535	8696.13
291.602	8697.72
291.669	8687.37
291.737	8690.6
291.804	8690.79
291.871	8704.22
291.938	8716.83
292.006	8747.64
292.073	8758.42
292.14	8777.09
292.207	8762.89
292.275	8759.43
292.342	8762.22
292.409	8794.66
292.476	8816.95
292.543	8809.68
292.611	8807.23
292.678	8823.69
292.745	8844.48
292.812	8857.14
292.879	8858.06
292.946	8861.48
293.014	8882.13
293.081	8893.49
293.148	8907.93
293.215	8924.29
293.282	8914.38
293.349	8917.94
293.416	8897.53
293.484	8916.01
293.551	8928.67
293.618	8949.71
293.685	8979.02
293.752	8970.94
293.819	8967.42
293.886	8956.69
293.953	8966.12
294.02	8982.3
294.087	8986.87
294.154	8981.86
294.221	8994.43
294.288	8991.35
294.356	9009.64
294.423	9011.33
294.49	8999
294.557	9007.57
294.624	9004.35
294.691	9033.52
294.758	9034.1
294.825	9038.24
294.892	9027.74
294.959	9025.96
295.026	9034.43
295.093	9025.19
295.16	9029.91
295.226	9025.09
295.293	9048.93
295.36	9051
295.427	9058.36
295.494	9074.25
295.561	9087.35
295.628	9105.98
295.695	9121
295.762	9120.67
295.829	9125.63
295.896	9147.43
295.963	9156.15
296.03	9163.23
296.096	9165.39
296.163	9178.87
296.23	9195.15
296.297	9209.78
296.364	9207.57
296.431	9214.79
296.498	9216.09
296.564	9236.07
296.631	9239.39
296.698	9226.49
296.765	9248.59
296.832	9238.33
296.899	9223.31
296.965	9242.13
297.032	9220.9
297.099	9238.33
297.166	9246.03
297.233	9242.95
297.299	9232.46
297.366	9236.64
297.433	9239.1
297.5	9248.59
297.566	9245.02
297.633	9247.05
297.7	9244.3
297.767	9247.33
297.833	9250.85
297.9	9253.98
297.967	9239.01
298.033	9253.64
298.1	9286.05
298.167	9281.43
298.234	9286.77
298.3	9292.41
298.367	9277.91
298.434	9290.96
298.5	9281.91
298.567	9275.6
298.634	9279.31
298.7	9298.71
298.767	9300.5
298.834	9317.49
298.9	9311.33
298.967	9305.79
299.033	9315.47
299.1	9332.08
299.167	9345.32
299.233	9344.55
299.3	9356.25
299.366	9375.22
299.433	9391.36
299.5	9364.24
299.566	9366.07
299.633	9380.91
299.699	9392.41
299.766	9399.73
299.832	9398.87
299.899	9406.86
299.965	9427.18
300.032	9422.61
300.099	9429.35
300.165	9433.39
300.232	9431.47
300.298	9434.16
300.365	9452.41
300.431	9454.24
300.498	9450.97
300.564	9454.1
300.631	9462.86
300.697	9482.85
300.763	9487.71
300.83	9482.17
300.896	9497.73
300.963	9511.31
301.029	9518.2
301.096	9527.2
301.162	9535.87
301.229	9539.1
301.295	9533.37
301.361	9534.23
301.428	9536.35
301.494	9517.38
301.561	9520.94
301.627	9518.92
301.693	9521.18
301.76	9529.32
301.826	9524.84
301.892	9539
301.959	9555.52
302.025	9551.09
302.092	9537.85
302.158	9543.91
302.224	9551.76
302.291	9545.02
302.357	9536.98
302.423	9535.49
302.49	9525.23
302.556	9539.29
302.622	9536.84
302.688	9548.15
302.755	9563.66
302.821	9576.38
302.887	9592.8
302.954	9589.86
303.02	9599.44
303.086	9607.29
303.152	9596.94
303.219	9594.19
303.285	9590
303.351	9596.65
303.417	9600.4
303.483	9592.75
303.55	9587.55
303.616	9581.86
303.682	9571.61
303.748	9568.43
303.815	9579.55
303.881	9595.06
303.947	9572.72
304.013	9570.12
304.079	9561.83
304.145	9537.37
304.212	9531.25
304.278	9521.28
304.344	9517.57
304.41	9507.56
304.476	9498.55
304.542	9497.64
304.608	9510.74
304.674	9498.21
304.741	9490.51
304.807	9489.59
304.873	9501.49
304.939	9519.64
305.005	9503.75
305.071	9507.99
305.137	9511.07
305.203	9483.48
305.269	9476.16
305.335	9489.16
305.401	9487.09
305.467	9480.78
305.533	9492
305.599	9499.95
305.666	9509.24
305.732	9516.42
305.798	9533.37
305.864	9559.09
305.93	9558.85
305.996	9547.77
306.062	9550.61
306.128	9547.43
306.194	9533.03
306.259	9532.5
306.325	9520.27
306.391	9529.32
306.457	9536.11
306.523	9541.94
306.589	9566.69
306.655	9555.67
306.721	9543.19
306.787	9534.09
306.853	9548.88
306.919	9531.44
306.985	9524.56
307.051	9517.53
307.117	9510.64
307.183	9502.45
307.248	9472.93
307.314	9478.52
307.38	9483.76
307.446	9487.23
307.512	9472.88
307.578	9485.64
307.644	9474.18
307.709	9472.93
307.775	9476.83
307.841	9478.27
307.907	9477.65
307.973	9461.22
308.039	9469.17
308.104	9473.5
308.17	9477.16
308.236	9462.67
308.302	9466.42
308.368	9457.37
308.433	9460.98
308.499	9452.75
308.565	9438.11
308.631	9450.53
308.696	9431.47
308.762	9422.89
308.828	9418.99
308.894	9401.56
308.959	9382.11
309.025	9368.68
309.091	9361.21
309.156	9350.38
309.222	9342.96
309.288	9328.37
309.354	9308.68
309.419	9300.44
309.485	9287.06
309.551	9287.78
309.616	9271.31
309.682	9268.71
309.748	9258.84
309.813	9255.13
309.879	9243.77
309.945	9238.19
310.01	9221.48
310.076	9224.8
310.141	9216.95
310.207	9206.89
310.273	9208.72
310.338	9209.15
310.404	9195.86
310.469	9185.85
310.535	9174.48
310.601	9157.83
310.666	9160.14
310.732	9170.44
310.797	9153.73
310.863	9144.1
310.928	9141.31
310.994	9155.95
311.059	9151.66
311.125	9153.73
311.191	9164.76
311.256	9157.15
311.322	9155.71
311.387	9131.3
311.453	9586.93
311.518	9560.26
311.584	9554.77
311.649	9563.15
311.715	9550.54
311.78	9556.41
311.846	9547.31
311.911	9553.19
311.976	9554.87
312.042	9539.61
312.107	9525.55
312.173	9524.78
312.238	9519.68
312.304	9512.55
312.369	9494.69
312.434	9480.34
312.5	9476.25
312.565	9439.76
312.631	9445.24
312.696	9438.7
312.761	9442.6
312.827	8969.15
312.892	9008.2
312.958	9004.68
313.023	8997.46
313.088	9000.73
313.154	8987.5
313.219	8976.62
313.284	8967.81
313.35	8966.22
313.415	8959.96
313.48	8954.52
313.546	8954.81
313.611	8962.75
313.676	8954.62
313.741	8949.08
313.807	8961.41
313.872	8960.92
313.937	8965.93
314.003	8977.2
314.068	8978.21
314.133	8989.52
314.198	8983.84
314.264	8962.85
314.329	8955.19
314.394	8953.27
314.459	8954.23
314.525	8976.37
314.59	8972.04
314.655	8958.95
314.72	8962.17
314.785	8963.33
314.851	8958.71
314.916	8937.62
314.981	8924.63
315.046	8915.43
315.111	8907.68
315.176	8891.8
315.242	8890.16
315.307	8886.74
315.372	8865.13
315.437	8857.14
315.502	8847.51
315.567	8860.55
315.632	8847.22
315.698	8849.29
315.763	8845.92
315.828	8828.54
315.893	8823.73
315.958	8827.53
316.023	8818.05
316.088	8800.34
316.153	8778.1
316.218	8768.76
316.283	8754.38
316.348	8741.14
316.413	8737.15
316.479	8722.23
316.544	8690.9
316.609	8665.92
316.674	8630.89
316.739	8595.72
316.804	8561.65
316.869	8525.7
316.934	8484.79
316.999	8456.5
317.064	8406.36
317.129	8363.2
317.194	8331.97
317.259	8280.48
317.324	8227.32
317.389	8181.48
317.454	8146.26
317.518	8114.42
317.583	8088.77
317.648	8068.42
317.713	8030.61
317.778	7973.61
317.843	7943.55
317.908	7901.09
317.973	7862.99
318.038	7834.33
318.103	7803.17
318.168	7777.64
318.233	7746.76
318.297	7699.59
318.362	7660.16
318.427	7622.28
318.492	7597.08
318.557	7550.12
318.622	7521.13
318.687	7503.77
318.751	7464.56
318.816	7429.22
318.881	7392.93
318.946	7341.59
319.011	7292.9
319.075	7248.78
319.14	7214.9
319.205	7167.76
319.27	7141.81
319.335	7096.69
319.399	7058.78
319.464	7030.81
319.529	6970.95
319.594	6931.27
319.658	6904.08
319.723	6863.24
319.788	6840.24
319.853	6782.54
319.917	6752.77
319.982	6703.49
320.047	6661.55
320.112	6634.42
320.176	6582.56
320.241	6550.77
320.306	6520.85
320.37	6488.25
320.435	6458.87
320.5	6429.58
320.564	6393.49
320.629	6351.25
320.694	6323.45
320.758	6282.95
320.823	6242.43
320.888	6221.13
320.952	6176.12
321.017	6132.26
321.082	6093.25
321.146	6054.95
321.211	6021.7
321.275	5982.8
321.34	5936.57
321.405	5891.24
321.469	5847.79
321.534	5809.85
321.598	5760.89
321.663	5732.63
321.727	5695.8
321.792	5647.13
321.857	5606.42
321.921	5568.35
321.986	5529.05
322.05	5470.09
322.115	5436.44
322.179	5386.26
322.244	5330.2
322.308	5298.14
322.373	5257.79
322.437	5219.89
322.502	5194.58
322.566	5155.87
322.631	5123.15
322.695	5091.64
322.76	5045.52
322.824	5013.82
322.889	4971.3
322.953	4928.35
323.018	4856.62
323.082	4796.31
323.146	4749.64
323.211	4693.21
323.275	4650.23
323.34	4606.64
323.404	4573.91
323.468	4531.26
323.533	4486.59
323.597	4444.12
323.662	4393.13
323.726	4354.43
323.79	4308.36
323.855	4240.94
323.919	4190.3
323.983	4144.25
324.048	4074.57
324.112	4245.79
324.177	4119.15
324.241	3907.7
324.305	3699.12
324.37	3499.05
324.434	3303.08
324.498	3260.07
324.562	3214.74
324.627	3155.57
324.691	3099.12
324.755	3033.29
324.82	2952.4
324.884	2882.39
324.948	2811.03
325.012	2717.4
325.077	2598.45
