Data from 20250703_urea_0.1M_MAYP1162681_03-11-05-111.txt Node
Date: Fri Jul 04 03:11:05 BST 2025
User: adleo
Spectrometer: MAYP116268
Trigger mode: 0
Integration Time (sec): 1.000000E0
Scans to average: 1
Electric dark correction enabled: true
Nonlinearity correction enabled: true
Boxcar width: 10
XAxis mode: Wavelengths
Number of Pixels in Spectrum: 2068
>>>>>Begin Spectral Data<<<<<
179.565	1301.03
179.642	1362.28
179.718	1411.18
179.795	1453.81
179.871	1487.69
179.948	1509.35
180.024	1532.4
180.101	1559.54
180.177	1573.74
180.254	1597.6
180.33	1622.61
180.407	1684.68
180.483	1786.59
180.56	1881.43
180.636	1973.16
180.712	1961.17
180.789	1972.16
180.865	1984.32
180.942	1995.59
181.018	2006.67
181.095	2016.43
181.171	2021.23
181.248	2023.37
181.324	2038.83
181.4	2046.77
181.477	2059.85
181.553	2074.02
181.63	2096.91
181.706	2111.99
181.782	2122.21
181.859	2119.88
181.935	2125.16
182.011	2120.83
182.088	2139.67
182.164	2161.8
182.24	2175.73
182.317	2187.48
182.393	2186.72
182.469	2204.75
182.546	2218.55
182.622	2224.35
182.698	2219.41
182.775	2231.78
182.851	2245.57
182.927	2235.96
183.003	2233.82
183.08	2228.45
183.156	2235.11
183.232	2229.02
183.308	2215.46
183.385	2223.78
183.461	2245.57
183.537	2245.76
183.613	2259.61
183.69	2249.86
183.766	2240.52
183.842	2249.23
183.918	2254.23
183.995	2269.6
184.071	2271.69
184.147	2266.27
184.223	2255.61
184.299	2268.13
184.375	2257.66
184.452	2264.71
184.528	2320.31
184.604	2330.2
184.68	2341.53
184.756	2350.48
184.832	2358.86
184.908	2363.75
184.985	2361.57
185.061	2345.19
185.137	2356.57
185.213	2344.82
185.289	2346.72
185.365	2338.63
185.441	2339.58
185.517	2354.34
185.593	2348.58
185.669	2344.78
185.745	2353.39
185.822	2371.09
185.898	2367.09
185.974	2377.75
186.05	2369.99
186.126	2331.38
186.202	2324.01
186.278	2319.87
186.354	2309.92
186.43	2316.44
186.506	2315.16
186.582	2315.97
186.658	2320.77
186.734	2297.69
186.81	2302.16
186.886	2304.4
186.962	2320.25
187.038	2314.3
187.114	2302.97
187.19	2310.53
187.266	2300.68
187.341	2302.78
187.417	2293.79
187.493	2293.36
187.569	2295.4
187.645	2290.12
187.721	2279.03
187.797	2285.98
187.873	2290.79
187.949	2285.36
188.025	2277.84
188.101	2281.26
188.176	2287.31
188.252	2283.55
188.328	2293.87
188.404	2293.16
188.48	2288.45
188.556	2278.97
188.632	2276.21
188.707	2279.93
188.783	2278.59
188.859	2273.93
188.935	2262.51
189.011	2270.93
189.086	2261.32
189.162	2251.71
189.238	2250.57
189.314	2249.14
189.39	2242.19
189.465	2236.76
189.541	2255.71
189.617	2237.63
189.693	2233.06
189.768	2237.77
189.844	2264.38
189.92	2254.59
189.996	2262.82
190.071	2274.91
190.147	2276.24
190.223	2286
190.298	2275.86
190.374	2260.25
190.45	2272.19
190.526	2282.33
190.601	2275.95
190.677	2278.85
190.753	2306.71
190.828	2309.85
190.904	2324.99
190.98	2340.93
191.055	2351.64
191.131	2342.98
191.207	2367.39
191.282	2375.24
191.358	2363.77
191.433	2347.34
191.509	2362.14
191.585	2359.19
191.66	2361.09
191.736	2364.23
191.811	2355.57
191.887	2374.09
191.963	2398.98
192.038	2404.03
192.114	2402.08
192.189	2408.98
192.265	2405.08
192.34	2381.93
192.416	2375.7
192.491	2372.37
192.567	2375.32
192.642	2376.13
192.718	2373.56
192.793	2358.94
192.869	2357.85
192.944	2360.66
193.02	2370.08
193.095	2374.41
193.171	2382.6
193.246	2379.56
193.322	2378.7
193.397	2378.41
193.473	2363.7
193.548	2344.09
193.624	2351.71
193.699	2349.94
193.775	2365.56
193.85	2365.75
193.925	2377.75
194.001	2378.27
194.076	2368.71
194.152	2358.9
194.227	2351.23
194.302	2342.76
194.378	2348.38
194.453	2344.86
194.529	2358.38
194.604	2342.48
194.679	2335.2
194.755	2312.59
194.83	2324.93
194.905	2322.88
194.981	2334.45
195.056	2327.12
195.131	2337.64
195.207	2334.54
195.282	2325.64
195.357	2303.5
195.433	2321.68
195.508	2308.88
195.583	2318.49
195.659	2335.34
195.734	2342.34
195.809	2342.82
195.884	2350.38
195.96	2349.86
196.035	2365.71
196.11	2362.52
196.185	2376.23
196.261	2379.51
196.336	2412.59
196.411	2400.69
196.486	2406.26
196.561	2401.64
196.637	2407.68
196.712	2422.49
196.787	2428.16
196.862	2442.96
196.937	2456.2
197.013	2462.34
197.088	2473.48
197.163	2496.06
197.238	2515.5
197.313	2516.21
197.388	2528.07
197.464	2561.65
197.539	2571.65
197.614	2567.32
197.689	2581.46
197.764	2598.52
197.839	2619.9
197.914	2612.8
197.989	2634.95
198.065	2648.76
198.14	2700.77
198.215	2730.78
198.29	2743.41
198.365	2754.08
198.44	2760.99
198.515	2789.15
198.59	2802.83
198.665	2829.85
198.74	2836.9
198.815	2838.43
198.89	2864.21
198.965	2899.68
199.04	2893.63
199.115	2913.5
199.19	2955.2
199.265	2956.87
199.34	2966.55
199.415	3003.13
199.49	3028.39
199.565	3041.07
199.64	3068.73
199.715	3063.43
199.79	3072.3
199.865	3078.31
199.94	3078.93
200.015	3120.61
200.09	3125.52
200.165	3134.72
200.24	3141.45
200.315	3186.36
200.39	3202.11
200.464	3203.35
200.539	3203.01
200.614	3224.62
200.689	3249.61
200.764	3258.92
200.839	3282.48
200.914	3286.82
200.989	3273.93
201.063	3286.05
201.138	3265.98
201.213	3268.6
201.288	3250.43
201.363	3256.87
201.438	3256.53
201.512	3273.89
201.587	3250.51
201.662	3253.09
201.737	3267.88
201.812	3279.19
201.886	3246.53
201.961	3256.89
202.036	3248.78
202.111	3244.82
202.186	3213.11
202.26	3194.32
202.335	3171.89
202.41	3159.4
202.485	3143.47
202.559	3128.02
202.634	3107.22
202.709	3119.09
202.784	3097.82
202.858	3102.06
202.933	3083.66
203.008	3083.61
203.082	3068.06
203.157	3074.07
203.232	3038.18
203.306	3022.29
203.381	2989.91
203.456	2969.88
203.53	2950.22
203.605	2934.88
203.68	2919.71
203.754	2921.62
203.829	2915.13
203.904	2905.36
203.978	2908.41
204.053	2928.58
204.127	2924.82
204.202	2932.83
204.277	2932.49
204.351	2940.93
204.426	2949.85
204.5	2961.58
204.575	2943.8
204.65	2974.47
204.724	2988.31
204.799	3020.38
204.873	3040.04
204.948	3067.99
205.022	3085.34
205.097	3107.63
205.171	3156.61
205.246	3198.56
205.32	3232.04
205.395	3268.4
205.469	3298.49
205.544	3346.57
205.618	3372.69
205.693	3432.31
205.767	3474.04
205.842	3545.15
205.916	3592.61
205.991	3634.54
206.065	3693.29
206.14	3767.62
206.214	3828.14
206.289	3885.02
206.363	3963.88
206.438	4032.11
206.512	4106.21
206.586	4194.21
206.661	4270.18
206.735	4323.54
206.81	4399.39
206.884	4494.57
206.958	4562.31
207.033	4659.42
207.107	4747.49
207.181	4862.28
207.256	4943.79
207.33	5044.69
207.405	5148.43
207.479	5260.97
207.553	5357.97
207.628	5437.79
207.702	5538.52
207.776	5624.44
207.851	5722.93
207.925	5836.44
207.999	5932.81
208.073	6034.17
208.148	6140.51
208.222	6234.71
208.296	6369.12
208.371	6492.97
208.445	6609.45
208.519	6748.6
208.593	6873.57
208.668	6980.52
208.742	7096.79
208.816	7207.62
208.89	7334.9
208.965	7438.33
209.039	7561.08
209.113	7692.66
209.187	7827.87
209.261	7948.16
209.336	8085.33
209.41	8222.76
209.484	8334
209.558	8474.45
209.632	8608.07
209.707	8736.36
209.781	8880.31
209.855	9012.2
209.929	9141.78
210.003	9261.21
210.077	9376.67
210.151	9542.49
210.226	9695.64
210.3	9833.99
210.374	9980.92
210.448	10095.99
210.522	10217.09
210.596	10334.87
210.67	10458.05
210.744	10621.86
210.818	10764.46
210.892	10898.28
210.966	11004.95
211.041	11129.51
211.115	11236.45
211.189	11366.13
211.263	11490.03
211.337	11602.03
211.411	11718.47
211.485	11823.35
211.559	11947.75
211.633	12054.16
211.707	12121.26
211.781	12226.11
211.855	12293.49
211.929	12378.52
212.003	12465.43
212.077	12585.45
212.151	12700.76
212.225	12811.19
212.299	12895.65
212.373	12984.2
212.447	13071.46
212.52	13192.45
212.594	13302.5
212.668	13406.1
212.742	13487.66
212.816	13572.27
212.89	13653.59
212.964	13743.88
213.038	13840.53
213.112	13944.56
213.186	14047.19
213.26	14110.87
213.333	14151.32
213.407	14247.44
213.481	14339.13
213.555	14433.61
213.629	14501.38
213.703	14571.23
213.777	14652.84
213.85	14718.11
213.924	14831.82
213.998	14918.25
214.072	14994.07
214.146	15050.47
214.219	15124.03
214.293	15196.48
214.367	15283.96
214.441	15376.7
214.515	15447.51
214.588	15495.86
214.662	15529.55
214.736	15587.1
214.81	15679.41
214.883	15766.12
214.957	15819.63
215.031	15883.59
215.105	15935.65
215.178	15992.67
215.252	16048.62
215.326	16089.64
215.4	16132.25
215.473	16146.52
215.547	16186.62
215.621	16240.65
215.694	16309.23
215.768	16349.57
215.842	16395.89
215.915	16441.1
215.989	16467.85
216.063	16507.8
216.136	16573.64
216.21	16627.86
216.284	16692.68
216.357	16744.83
216.431	16797.26
216.504	16867.58
216.578	16945.46
216.652	17005.71
216.725	17062.43
216.799	17132.41
216.873	17185.57
216.946	17251.79
217.02	17303.98
217.093	17354.39
217.167	17379.02
217.24	17415.64
217.314	17458.73
217.387	17496.13
217.461	17535.07
217.535	17606.78
217.608	17658.73
217.682	17700.32
217.755	17765.28
217.829	17804.27
217.902	17854.48
217.976	17899.44
218.049	17923.78
218.123	17949.42
218.196	18000.6
218.27	18041.46
218.343	18067.44
218.417	18118.52
218.49	18160.88
218.563	18220.64
218.637	18274.27
218.71	18349.5
218.784	18417.35
218.857	18489.2
218.931	18549.44
219.004	18602.88
219.077	18649.82
219.151	18690.73
219.224	18727.6
219.298	18770.1
219.371	18830.82
219.444	18855.54
219.518	18903.88
219.591	18963.29
219.665	19046.76
219.738	19102.23
219.811	19142.85
219.885	19195.14
219.958	19246.27
220.031	19293.88
220.105	19342.89
220.178	19393.87
220.251	19426.11
220.325	19456.57
220.398	19499.75
220.471	19545.04
220.544	19588.17
220.618	19619.98
220.691	19667.4
220.764	19717.23
220.838	19771.88
220.911	19800.02
220.984	19871.63
221.057	19917.41
221.131	19960.49
221.204	19951.63
221.277	20005.46
221.35	20072.49
221.424	20104.11
221.497	20140.63
221.57	20166.42
221.643	20198.99
221.716	20238.9
221.79	20265.64
221.863	20306.32
221.936	20335.14
222.009	20372.63
222.082	20419.91
222.155	20444.34
222.229	20494.32
222.302	20530.61
222.375	20554.56
222.448	20591.91
222.521	20617.69
222.594	20637.55
222.667	20653.79
222.74	20699.43
222.814	20721.65
222.887	20738.95
222.96	20773.84
223.033	20812.69
223.106	20854.04
223.179	20889.65
223.252	20898.28
223.325	20923.49
223.398	20943.3
223.471	20969.13
223.544	20992.84
223.617	21012.7
223.69	21041.76
223.763	21048.02
223.837	21073.86
223.91	21090.68
223.983	21101.18
224.056	21108.51
224.129	21126.73
224.202	21155.07
224.275	21170.06
224.348	21170.44
224.42	21173.82
224.493	21178.73
224.566	21186.93
224.639	21200.18
224.712	21207.36
224.785	21227.7
224.858	21237.73
224.931	21235.85
225.004	21229.15
225.077	21244.81
225.15	21224.18
225.223	21237.39
225.296	21268.96
225.369	21256.33
225.442	21262.69
225.514	21265.39
225.587	21277.73
225.66	21287.95
225.733	21314.07
225.806	21319.76
225.879	21337.4
225.952	21336.15
226.025	21349.93
226.097	21369.65
226.17	21372.3
226.243	21358.71
226.316	21358.56
226.389	21375.91
226.461	21392.69
226.534	21409.84
226.607	21401.75
226.68	21422.66
226.753	21429.17
226.825	21417.07
226.898	21449.03
226.971	21451.34
227.044	21465.18
227.117	21474.33
227.189	21490.72
227.262	21496.36
227.335	21513.62
227.407	21506.1
227.48	21515.88
227.553	21524.37
227.626	21514.63
227.698	21513.33
227.771	21528.61
227.844	21528.9
227.916	21524.75
227.989	21519.79
228.062	21516.03
228.134	21542.05
228.207	21550.44
228.28	21545.38
228.352	21546.44
228.425	21534.92
228.498	21551.4
228.57	21536.41
228.643	21547.4
228.716	21542.73
228.788	21519.69
228.861	21511.21
228.934	21521.52
229.006	21514.87
229.079	21504.89
229.151	21490.77
229.224	21472.65
229.296	21469.13
229.369	21486.87
229.442	21498.92
229.514	21486.48
229.587	21501.33
229.659	21481.66
229.732	21481.32
229.804	21492.55
229.877	21505.76
229.949	21511.55
230.022	21528.32
230.094	21524.27
230.167	21521.91
230.239	21513.52
230.312	21518.44
230.384	21532.47
230.457	21531.7
230.529	21532.66
230.602	21537
230.674	21543.89
230.747	21562.49
230.819	21565.87
230.892	21526.06
230.964	21517.52
231.037	21514.92
231.109	21490.82
231.181	21485.18
231.254	21459.73
231.326	21437.85
231.399	21419.87
231.471	21398.52
231.544	21359.62
231.616	21362.85
231.688	21348.01
231.761	21324.2
231.833	21307.42
231.905	21266.84
231.978	21242.31
232.05	21223.75
232.122	21206.54
232.195	21185.34
232.267	21178.69
232.339	21158.01
232.412	21161.38
232.484	21137.62
232.556	21119.69
232.629	21131.26
232.701	21126.54
232.773	21115.89
232.846	21095.64
232.918	21087.45
232.99	21077.52
233.062	21069.28
233.135	21059.11
233.207	21017.56
233.279	21020.79
233.351	21006.09
233.424	20988.31
233.496	20968.21
233.568	20979.25
233.64	20951.44
233.713	20935.01
233.785	20912.5
233.857	20899.39
233.929	20874.76
234.001	20887.2
234.074	20895.15
234.146	20856.59
234.218	20834.66
234.29	20810.47
234.362	20777.89
234.434	20728.3
234.507	20695.53
234.579	20651.82
234.651	20628.25
234.723	20630.37
234.795	20608.3
234.867	20578.99
234.939	20575.24
235.012	20555.96
235.084	20530.61
235.156	20517.26
235.228	20485.89
235.3	20462.56
235.372	20434.27
235.444	20415.76
235.516	20348.39
235.588	20304.44
235.66	20270.08
235.732	20225.55
235.804	20265.02
235.876	20264.1
235.948	20261.93
236.02	20236.01
236.092	20209.31
236.164	20172.68
236.236	20124.97
236.308	20087.87
236.38	20069.27
236.452	20020.11
236.524	19994.13
236.596	19979.97
236.668	19958.23
236.74	19930.38
236.812	19905.85
236.884	19888.74
236.956	19854.62
237.028	19823.59
237.1	19789.81
237.172	19787.4
237.244	19787.01
237.316	19718.96
237.388	19679.54
237.46	19644.22
237.532	19640.65
237.604	19608.94
237.675	19599.88
237.747	19590.87
237.819	19550.25
237.891	19518.25
237.963	19493.77
238.035	19464.76
238.107	19395.41
238.178	19379.61
238.25	19349.44
238.322	19343.32
238.394	19299.32
238.466	19274.55
238.538	19256.14
238.609	19239.09
238.681	19187.76
238.753	19148.01
238.825	19116.25
238.897	19092.93
238.968	19081.5
239.04	19031.39
239.112	19023.05
239.184	18971.15
239.255	18930.09
239.327	18911.88
239.399	18879.2
239.471	18859.54
239.542	18825.62
239.614	18809.38
239.686	18744.71
239.758	18729.86
239.829	18682.3
239.901	18664.66
239.973	18632.71
240.044	18601.63
240.116	18568.57
240.188	18539.03
240.259	18502.07
240.331	18463.61
240.403	18435.28
240.474	18375.62
240.546	18335.38
240.618	18282.95
240.689	18257.12
240.761	18230.57
240.833	18214.37
240.904	18188.35
240.976	18142.52
241.048	18109.9
241.119	18086.09
241.191	18066.43
241.262	18049.22
241.334	18005.71
241.405	17967.93
241.477	17922.82
241.549	17883.98
241.62	17844.36
241.692	17823.54
241.763	17808.61
241.835	17769.71
241.906	17733.52
241.978	17684.61
242.049	17664.46
242.121	17635.93
242.192	17614.44
242.264	17565.28
242.335	17508.9
242.407	17477.09
242.478	17441.96
242.55	17413.14
242.621	17367.45
242.693	17322.73
242.764	17274.97
242.836	17243.64
242.907	17207.4
242.979	17186.68
243.05	17164.75
243.122	17145.23
243.193	17093.67
243.264	17028.07
243.336	16990.05
243.407	16962.05
243.479	16952.75
243.55	16916.65
243.622	16896.98
243.693	16866.62
243.764	16851.68
243.836	16806.81
243.907	16769.27
243.978	16734.23
244.05	16708.78
244.121	16664.15
244.192	16647.48
244.264	16593.83
244.335	16556.63
244.407	16514.6
244.478	16478.11
244.549	16443.75
244.62	16389.96
244.692	16366.1
244.763	16347.79
244.834	16321.14
244.906	16285.04
244.977	16256.55
245.048	16239.97
245.119	16201.51
245.191	16150.9
245.262	16096.2
245.333	16090.7
245.405	16054.51
245.476	16030.89
245.547	15993.15
245.618	15964.76
245.689	15926.83
245.761	15906.92
245.832	15864.51
245.903	15841.47
245.974	15819
246.045	15785.84
246.117	15778.28
246.188	15734.56
246.259	15690.65
246.33	15655.85
246.401	15623.12
246.473	15578.73
246.544	15548.17
246.615	15528.65
246.686	15494.57
246.757	15469.89
246.828	15420.14
246.899	15404.14
246.97	15353.82
247.042	15317.43
247.113	15303.35
247.184	15300.07
247.255	15264.5
247.326	15243.1
247.397	15211.48
247.468	15177.69
247.539	15141.54
247.61	15094.25
247.681	15074.82
247.752	15057.47
247.823	15019.68
247.894	14986.95
247.965	14947.04
248.037	14907.99
248.108	14855.79
248.179	14828.89
248.25	14806.33
248.321	14791.05
248.392	14755.47
248.463	14749.3
248.534	14719.42
248.605	14692.23
248.675	14658.1
248.746	14632.46
248.817	14609.13
248.888	14587.82
248.959	14549.26
249.03	14524.43
249.101	14493.44
249.172	14449.52
249.243	14400.93
249.314	14386.61
249.385	14355.13
249.456	14337.63
249.527	14297.58
249.598	14277.23
249.669	14250.09
249.739	14223.1
249.81	14195.57
249.881	14151.9
249.952	14127.55
250.023	14101.43
250.094	14057.8
250.165	14018.37
250.235	13993.45
250.306	13972.91
250.377	13932.9
250.448	13906.53
250.519	13865.22
250.59	13861.65
250.66	13844.54
250.731	13830.94
250.802	13805.01
250.873	13794.16
250.944	13770.11
251.014	13746.05
251.085	13750.24
251.156	13729.52
251.227	13722.57
251.297	13717.85
251.368	13706.14
251.439	13691.38
251.51	13675.81
251.58	13638.26
251.651	13603.94
251.722	13592.56
251.792	13550.14
251.863	13511.53
251.934	13505.55
252.005	13519.38
252.075	13486.22
252.146	13472.43
252.217	13466.84
252.287	13455.99
252.358	13422.73
252.429	13418.54
252.499	13386.04
252.57	13354.08
252.641	13339.43
252.711	13310.84
252.782	13258.35
252.852	13261.86
252.923	13235.06
252.994	13213.47
253.064	13204.21
253.135	13177.02
253.205	13137.68
253.276	13134.21
253.347	13132.96
253.417	13100.52
253.488	13071.21
253.558	13046.77
253.629	13019.24
253.699	13003.67
253.77	12983.33
253.841	12956.91
253.911	12929.68
253.982	12913.53
254.052	12899.11
254.123	12876.55
254.193	12850.91
254.264	12884.41
254.334	12839.87
254.405	12807.67
254.475	12771.51
254.546	12755.07
254.616	12753.34
254.687	12749.92
254.757	12723.26
254.827	12695.11
254.898	12672.16
254.968	12644.83
255.039	12616.15
255.109	12609.4
255.18	12571.66
255.25	12519.31
255.321	12504.99
255.391	12473.32
255.461	12472.69
255.532	12426.27
255.602	12401.45
255.673	12359.12
255.743	12314.53
255.813	12274.48
255.884	12257.12
255.954	12248.69
256.024	12245.31
256.095	12219.24
256.165	12180.72
256.235	12173.73
256.306	12154.07
256.376	12149.68
256.446	12131.55
256.517	12118.06
256.587	12104.85
256.657	12090.05
256.728	12078.97
256.798	12063.2
256.868	12045.23
256.938	12017.61
257.009	12015.97
257.079	12008.11
257.149	12025.66
257.219	11982.61
257.29	11974.22
257.36	11940.24
257.43	11933.98
257.5	11892.62
257.571	11862.93
257.641	11849.48
257.711	11817.19
257.781	11806.2
257.852	11795.4
257.922	11761.08
257.992	11739.06
258.062	11712.84
258.132	11701.27
258.202	11689.51
258.273	11670.08
258.343	11669.94
258.413	11641.36
258.483	11620.05
258.553	11582.85
258.623	11553.93
258.693	11539.8
258.764	11535.47
258.834	11535.32
258.904	11512.96
258.974	11488.77
259.044	11469.49
259.114	11453
259.184	11434.59
259.254	11410.88
259.324	11362.59
259.394	11348.95
259.464	11354.93
259.535	11334.54
259.605	11316.03
259.675	11284.56
259.745	11273.14
259.815	11241.52
259.885	11222.44
259.955	11227.65
260.025	11209.09
260.095	11184.95
260.165	11179.79
260.235	11176.08
260.305	11149.82
260.375	11121.96
260.445	11131.26
260.515	11135.69
260.585	11133.19
260.655	11119.12
260.725	11114.44
260.795	11111.7
260.865	11119.89
260.934	11094.15
261.004	11080.71
261.074	11059.84
261.144	11062.2
261.214	11058.25
261.284	11039.5
261.354	11042.83
261.424	11019.98
261.494	11020.23
261.564	11005.09
261.634	10993.91
261.703	10960.42
261.773	10952.86
261.843	10942.64
261.913	10918.79
261.983	10882.21
262.053	10877.92
262.123	10862.12
262.192	10839.95
262.262	10838.12
262.332	10804
262.402	10795.23
262.472	10786.37
262.541	10750.57
262.611	10745.51
262.681	10713.9
262.751	10704.07
262.821	10680.6
262.89	10647.98
262.96	10635.21
263.03	10640.22
263.1	10625.81
263.169	10604.66
263.239	10594.88
263.309	10604.42
263.379	10596.23
263.448	10592.67
263.518	10576.43
263.588	10554.12
263.657	10553.01
263.727	10542.41
263.797	10530.85
263.867	10510.32
263.936	10480.06
264.006	10481.85
264.076	10460.21
264.145	10442.1
264.215	10425.72
264.285	10418.15
264.354	10384.38
264.424	10366.61
264.494	10341.21
264.563	10318.47
264.633	10334.03
264.702	10326.76
264.772	10288.07
264.842	10274.39
264.911	10261.72
264.981	10222.31
265.05	10218.89
265.12	10201.78
265.19	10190.22
265.259	10183.72
265.329	10177.12
265.398	10163.92
265.468	10180.68
265.537	10163.15
265.607	10158.52
265.676	10155.78
265.746	10148.65
265.815	10147.88
265.885	10130.44
265.955	10102.36
266.024	10087.47
266.094	10043.49
266.163	10041.13
266.232	10040.94
266.302	10027.06
266.371	10011.89
266.441	10007.12
266.51	10003.07
266.58	9988.09
266.649	9967.19
266.719	9963.33
266.788	9958.66
266.858	9969.4
266.927	9924.94
266.996	9919.83
267.066	9915.74
267.135	9888.24
267.205	9882.65
267.274	9872.53
267.343	9881.97
267.413	9872.53
267.482	9878.6
267.552	9886.26
267.621	9853.27
267.69	9823.26
267.76	9812.9
267.829	9807.22
267.898	9798.46
267.968	9766.91
268.037	9756.22
268.106	9751.83
268.176	9727.46
268.245	9705.74
268.314	9688.06
268.384	9691.91
268.453	9683.1
268.522	9670
268.592	9674.62
268.661	9645.87
268.73	9642.84
268.799	9611.58
268.869	9619.81
268.938	9589.04
269.007	9572.13
269.076	9564.38
269.146	9564.09
269.215	9553.88
269.284	9563.32
269.353	9547.33
269.422	9540.11
269.492	9529.57
269.561	9485.22
269.63	9479.29
269.699	9462.39
269.768	9451.22
269.838	9440.62
269.907	9438.5
269.976	9416.64
270.045	9381.59
270.114	9387.94
270.183	9368.63
270.253	9366.95
270.322	9337.09
270.391	9324
270.46	9326.84
270.529	9326.45
270.598	9330.31
270.667	9315.91
270.736	9291.49
270.806	9288.55
270.875	9292.02
270.944	9277
271.013	9305.45
271.082	9299.39
271.151	9301.22
271.22	9272.09
271.289	9257.11
271.358	9233.14
271.427	9230.44
271.496	9222.11
271.565	9203.48
271.634	9201.17
271.703	9229.1
271.772	9232.9
271.841	9229.1
271.91	9203.87
271.979	9197.7
272.048	9167.47
272.117	9170.93
272.186	9156.73
272.255	9150.57
272.324	9147.05
272.393	9143.15
272.462	9121.77
272.531	9109.06
272.6	9097.8
272.669	9107.23
272.738	9098.81
272.807	9099.87
272.876	9073.01
272.945	9102.76
273.013	9105.02
273.082	9108.58
273.151	9061.73
273.22	9052.78
273.289	9043.49
273.358	9055.47
273.427	9041.32
273.496	9047.43
273.564	9040.12
273.633	9036.55
273.702	9020.67
273.771	9008.82
273.84	8999.34
273.909	8991.83
273.977	8994.58
274.046	8979.07
274.115	8978.98
274.184	8964.11
274.253	8953.13
274.322	8967.47
274.39	8930.26
274.459	8909.37
274.528	8876.83
274.597	8870.81
274.665	8868.89
274.734	8875.87
274.803	8862.1
274.872	8852.23
274.94	8834.51
275.009	8895.49
275.078	8883.21
275.147	8880.52
275.215	8879.7
275.284	8893.37
275.353	8890.68
275.421	8861.99
275.49	8874.99
275.559	8871.66
275.627	8866.03
275.696	8862.57
275.765	8862.47
275.833	8857.42
275.902	8863.87
275.971	8881.1
276.039	8897.71
276.108	8899.73
276.177	8896.98
276.245	8884.23
276.314	8882.26
276.383	8889.52
276.451	8820.8
276.52	8822.34
276.588	8835.72
276.657	8836.35
276.725	8819.6
276.794	8816.71
276.863	8830.62
276.931	8815.07
277	8813.91
277.068	8823.97
277.137	8838.65
277.205	8836.44
277.274	8858.48
277.342	8867.87
277.411	8850.21
277.48	8832.64
277.548	8822.48
277.617	8822.43
277.685	8816.75
277.754	8817.76
277.822	8806.79
277.89	8816.61
277.959	8812.37
278.027	8792.83
278.096	8778.25
278.164	8807.18
278.233	8802.27
278.301	8792.26
278.37	8792.31
278.438	8775.9
278.507	8779.36
278.575	8752.74
278.643	8745.72
278.712	8724.78
278.78	8704.08
278.849	8709.9
278.917	8715.87
278.985	8711.35
279.054	8710.72
279.122	8726.03
279.191	8724.87
279.259	8724.78
279.327	8704.08
279.396	8718.28
279.464	8712.41
279.532	8720.3
279.601	8719.67
279.669	8713.18
279.737	8727.81
279.806	8726.99
279.874	8741.77
279.942	8736.09
280.011	8730.79
280.079	8736.42
280.147	8753.85
280.215	8764.34
280.284	8765.64
280.352	8755.24
280.42	8762.37
280.488	8753.7
280.557	8741.48
280.625	8747.59
280.693	8746.19
280.761	8750.86
280.83	8734.69
280.898	8750.14
280.966	8737.29
281.034	8694.78
281.102	8684.15
281.171	8672.74
281.239	8683.67
281.307	8669.47
281.375	8656.43
281.443	8683.09
281.512	8680.88
281.58	8686.27
281.648	8671.45
281.716	8663.89
281.784	8660.62
281.852	8652.68
281.92	8652.49
281.989	8665.82
282.057	8647.82
282.125	8695.33
282.193	8686.67
282.261	8687.73
282.329	8686.29
282.397	8685.85
282.465	8692.88
282.533	8710.35
282.601	8699.33
282.67	8682.91
282.738	8680.27
282.806	8699.56
282.874	8685.03
282.942	8686.04
283.01	8680.17
283.078	8686.71
283.146	8689.74
283.214	8702.74
283.282	8705
283.35	8717.66
283.418	8710.78
283.486	8718.76
283.554	8671.39
283.622	8677.5
283.69	8674.86
283.758	8663.21
283.826	8667.3
283.894	8679
283.962	8698.4
284.03	8716.59
284.098	8713.94
284.165	8707.93
284.233	8702.34
284.301	8693.34
284.369	8687.57
284.437	8677.32
284.505	8674.09
284.573	8684.73
284.641	8671.15
284.709	8680.73
284.777	8662.68
284.845	8666.53
284.912	8669.95
284.98	8672.93
285.048	8662.54
285.116	8669.18
285.184	8684.29
285.252	8683.23
285.319	8660.09
285.387	8645.4
285.455	8627.98
285.523	8630.68
285.591	8625.67
285.659	8630.58
285.726	8648.92
285.794	8639.78
285.862	8638.19
285.93	8628.32
285.997	8628.47
286.065	8625.05
286.133	8611.77
286.201	8607.97
286.269	8597.14
286.336	8584.96
286.404	8581.69
286.472	8594.2
286.539	8572.35
286.607	8555.17
286.675	8556.86
286.743	8573.41
286.81	8568.84
286.878	8584.77
286.946	8581.25
287.013	8584.48
287.081	8579.47
287.149	8561.23
287.216	8580.53
287.284	8578.36
287.352	8589.1
287.419	8580.63
287.487	8593.72
287.555	8601.37
287.622	8600.98
287.69	8602.14
287.758	8612.53
287.825	8613.21
287.893	8601.95
287.96	8607.53
288.028	8616.38
288.096	8621.63
288.163	8619.61
288.231	8609.4
288.298	8607.14
288.366	8623.17
288.433	8625
288.501	8617.1
288.569	8619.9
288.636	8607.38
288.704	8620.43
288.771	8622.25
288.839	8613.06
288.906	8610.8
288.974	8619.61
289.041	8616.05
289.109	8614.8
289.176	8623.27
289.244	8618.79
289.311	8633.71
289.379	8646.03
289.446	8647.91
289.514	8640.88
289.581	8641.6
289.649	8644.88
289.716	8645.45
289.783	8629.28
289.851	8647.19
289.918	8650.55
289.986	8660.61
290.053	8666
290.121	8661
290.188	8670.24
290.255	8707.73
290.323	8697.34
290.39	8692.96
290.458	8701.91
290.525	8713.32
290.592	8711.54
290.66	8713.61
290.727	8700.22
290.794	8713.37
290.862	8716.06
290.929	8719.14
290.996	8718.42
291.064	8725.78
291.131	8739.55
291.198	8755.1
291.266	8749.18
291.333	8750.04
291.4	8757.41
291.468	8779.98
291.535	8772.57
291.602	8773.82
291.669	8758.95
291.737	8763.28
291.804	8763.18
291.871	8776.47
291.938	8779.55
292.006	8805.21
292.073	8822.1
292.14	8841.4
292.207	8826.53
292.275	8826.72
292.342	8843.38
292.409	8871.25
292.476	8900.9
292.543	8892.09
292.611	8892.72
292.678	8916.36
292.745	8943.36
292.812	8953.23
292.879	8944.85
292.946	8952.75
293.014	8959.48
293.081	8972.72
293.148	8987.4
293.215	8999.78
293.282	8995.06
293.349	9006.61
293.416	8985.38
293.484	8999.15
293.551	9010.7
293.618	9036.07
293.685	9060.96
293.752	9055.04
293.819	9053.88
293.886	9035.73
293.953	9042.23
294.02	9050.46
294.087	9051.72
294.154	9045.31
294.221	9060.62
294.288	9055.91
294.356	9074.01
294.423	9083.4
294.49	9070.49
294.557	9085.03
294.624	9076.9
294.691	9101.98
294.758	9104.92
294.825	9116.57
294.892	9109.25
294.959	9105.25
295.026	9112.14
295.093	9110.4
295.16	9108.53
295.226	9109.2
295.293	9136.07
295.36	9138.67
295.427	9153.02
295.494	9170.54
295.561	9175.5
295.628	9197.27
295.695	9221.34
295.762	9227.7
295.829	9238.82
295.896	9258.27
295.963	9271.71
296.03	9286.63
296.096	9284.61
296.163	9287.74
296.23	9303.39
296.297	9316.2
296.364	9316.73
296.431	9326.84
296.498	9321.01
296.564	9345.18
296.631	9344.36
296.698	9328.52
296.765	9348.26
296.832	9343.4
296.899	9324.28
296.965	9345.42
297.032	9320.52
297.099	9331.93
297.166	9336.22
297.233	9330.49
297.299	9324.04
297.366	9318.64
297.433	9317.34
297.5	9333.62
297.566	9339.49
297.633	9336.08
297.7	9342.82
297.767	9340.6
297.833	9343.88
297.9	9345.23
297.967	9335.55
298.033	9350.76
298.1	9382.11
298.167	9373.64
298.234	9373.35
298.3	9383.51
298.367	9380.96
298.434	9387.8
298.5	9378.21
298.567	9372.87
298.634	9374.5
298.7	9393.28
298.767	9397.52
298.834	9415.15
298.9	9404.26
298.967	9395.45
299.033	9405.56
299.1	9417.03
299.167	9425.16
299.233	9420.11
299.3	9439.56
299.366	9449.96
299.433	9461.18
299.5	9432.96
299.566	9441.87
299.633	9463.01
299.699	9474.86
299.766	9472.01
299.832	9476.64
299.899	9486.13
299.965	9506.3
300.032	9500.04
300.099	9502.4
300.165	9513
300.232	9508.66
300.298	9511.94
300.365	9529.8
300.431	9531.49
300.498	9523.25
300.564	9538.33
300.631	9549.36
300.697	9559.57
300.763	9563.56
300.83	9566.79
300.896	9586.97
300.963	9596.94
301.029	9602.09
301.096	9611.67
301.162	9619.19
301.229	9616.73
301.295	9603.53
301.361	9601.51
301.428	9601.32
301.494	9589.52
301.561	9587.64
301.627	9593.95
301.693	9594.48
301.76	9599.3
301.826	9593.95
301.892	9604.16
301.959	9616.88
302.025	9613.26
302.092	9606.96
302.158	9614.71
302.224	9613.89
302.291	9612.49
302.357	9605.94
302.423	9595.54
302.49	9579.65
302.556	9594.24
302.622	9595.93
302.688	9612.78
302.755	9626.51
302.821	9642.45
302.887	9654.44
302.954	9652.95
303.02	9657.43
303.086	9666.38
303.152	9663.88
303.219	9658.73
303.285	9667.25
303.351	9675.34
303.417	9677.37
303.483	9667.54
303.55	9659.88
303.616	9662.49
303.682	9654.39
303.748	9653.38
303.815	9668.46
303.881	9679.92
303.947	9661.67
304.013	9660.61
304.079	9648.81
304.145	9628.68
304.212	9625.88
304.278	9618.18
304.344	9615.14
304.41	9605.7
304.476	9592.17
304.542	9586.68
304.608	9598.62
304.674	9584.03
304.741	9570.59
304.807	9574.54
304.873	9585.04
304.939	9600.11
305.005	9579.16
305.071	9568.38
305.137	9562.89
305.203	9536.11
305.269	9535.49
305.335	9547.96
305.401	9550.22
305.467	9550.8
305.533	9555.13
305.599	9565.92
305.666	9572.23
305.732	9572.28
305.798	9581.48
305.864	9610.38
305.93	9614.85
305.996	9609.36
306.062	9604.74
306.128	9595.25
306.194	9582.54
306.259	9580.76
306.325	9574.45
306.391	9587.26
306.457	9607.82
306.523	9613.89
306.589	9643.99
306.655	9640.86
306.721	9625.45
306.787	9613.26
306.853	9626.75
306.919	9614.81
306.985	9603.73
307.051	9602.48
307.117	9597.23
307.183	9593.52
307.248	9559.28
307.314	9566.6
307.38	9569.54
307.446	9575.65
307.512	9576.66
307.578	9579.17
307.644	9576.23
307.709	9574.98
307.775	9573.39
307.841	9568.67
307.907	9565.63
307.973	9544.25
308.039	9541.17
308.104	9541.07
308.17	9541.41
308.236	9526.62
308.302	9528.89
308.368	9516.41
308.433	9514.92
308.499	9508.61
308.565	9493.44
308.631	9507.84
308.696	9475.48
308.762	9464.4
308.828	9463.44
308.894	9445.05
308.959	9424.73
309.025	9408.93
309.091	9399.4
309.156	9392.37
309.222	9390.01
309.288	9387.31
309.354	9369.16
309.419	9362.37
309.485	9351.63
309.551	9358.51
309.616	9343.73
309.682	9341.95
309.748	9338.92
309.813	9329.48
309.879	9319.8
309.945	9302.95
310.01	9292.69
310.076	9305.31
310.141	9297.51
310.207	9278.63
310.273	9286.05
310.338	9290.81
310.404	9277.09
310.469	9269.24
310.535	9256.29
310.601	9232.26
310.666	9232.6
310.732	9236.16
310.797	9222.54
310.863	9210.79
310.928	9203.37
310.994	9212.47
311.059	9208.38
311.125	9206.55
311.191	9216.28
311.256	9206.84
311.322	9223.45
311.387	9201.21
311.453	9622.24
311.518	9595.38
311.584	9600.87
311.649	9597.5
311.715	9589.17
311.78	9593.5
311.846	9586.04
311.911	9590.81
311.976	9593.79
312.042	9570.68
312.107	9559.13
312.173	9555.32
312.238	9549.36
312.304	9546.66
312.369	9532.02
312.434	9520.95
312.5	9507.04
312.565	9474.58
312.631	9482.67
312.696	9473.67
312.761	9480.79
312.827	9046.08
312.892	9090.19
312.958	9084.07
313.023	9082.58
313.088	9079.88
313.154	9063.85
313.219	9059.09
313.284	9046.81
313.35	9039.68
313.415	9035.26
313.48	9028.52
313.546	9034.34
313.611	9046.43
313.676	9033.23
313.741	9024.14
313.807	9031.89
313.872	9039.4
313.937	9048.3
314.003	9055.96
314.068	9052.44
314.133	9060.77
314.198	9053.31
314.264	9030.39
314.329	9020.9
314.394	9015.03
314.459	9012.09
314.525	9035.06
314.59	9023.41
314.655	9015.46
314.72	9017.53
314.785	9023.46
314.851	9023.07
314.916	8997.85
314.981	8977.82
315.046	8965.69
315.111	8955
315.176	8937.1
315.242	8944.27
315.307	8939.02
315.372	8919.28
315.437	8908.55
315.502	8898.97
315.567	8903.06
315.632	8884.91
315.698	8884.19
315.763	8879.76
315.828	8870.37
315.893	8865.66
315.958	8867.44
316.023	8859.35
316.088	8845.68
316.153	8820.22
316.218	8816.18
316.283	8804.1
316.348	8792.11
316.413	8793.37
316.479	8781.14
316.544	8756.98
316.609	8724.06
316.674	8685.76
316.739	8648.8
316.804	8617.81
316.869	8582.82
316.934	8546.53
316.999	8519.59
317.064	8472.24
317.129	8429.41
317.194	8393.99
317.259	8345.49
317.324	8288.19
317.389	8242.49
317.454	8207.41
317.518	8176.09
317.583	8144.96
317.648	8122.74
317.713	8084.11
317.778	8023.64
317.843	7995.5
317.908	7954.53
317.973	7912.53
318.038	7893.87
318.103	7863.67
318.168	7837.37
318.233	7808.07
318.297	7766.57
318.362	7727.19
318.427	7685.12
318.492	7656.99
318.557	7612.72
318.622	7582.57
318.687	7565.6
318.751	7527.19
318.816	7494.4
318.881	7468.25
318.946	7413.59
319.011	7368.88
319.075	7335.48
319.14	7299.3
319.205	7253.06
319.27	7221.3
319.335	7179.97
319.399	7135.52
319.464	7108.56
319.529	7051.96
319.594	7006.07
319.658	6971.09
319.723	6930.59
319.788	6904.27
319.853	6855.07
319.917	6829.47
319.982	6775.24
320.047	6737.92
320.112	6714.19
320.176	6665.11
320.241	6627.02
320.306	6597.97
320.37	6559.02
320.435	6527.71
320.5	6504.72
320.564	6469.96
320.629	6431.65
320.694	6402.13
320.758	6362.52
320.823	6315.15
320.888	6293.21
320.952	6244.94
321.017	6207.31
321.082	6169.59
321.146	6138.98
321.211	6101.64
321.275	6055.64
321.34	6015.68
321.405	5971.21
321.469	5923.29
321.534	5877.06
321.598	5823.1
321.663	5792.2
321.727	5756.71
321.792	5707.27
321.857	5660.6
321.921	5622.1
321.986	5580.92
322.05	5520.24
322.115	5480.93
322.179	5438.41
322.244	5376.31
322.308	5349.42
322.373	5298.05
322.437	5258.14
322.502	5228.99
322.566	5188.83
322.631	5153.05
322.695	5116.02
322.76	5075.89
322.824	5041.78
322.889	5005.77
322.953	4966.56
323.018	4902.77
323.082	4841.06
323.146	4793.48
323.211	4743.79
323.275	4696.59
323.34	4647.88
323.404	4618.16
323.468	4575.42
323.533	4531.45
323.597	4490.33
323.662	4435.12
323.726	4403.69
323.79	4357.86
323.855	4293.88
323.919	4239.51
323.983	4199.19
324.048	4131.81
324.112	4261.57
324.177	4132.06
324.241	3916.88
324.305	3705.66
324.37	3499.09
324.434	3301.03
324.498	3254.16
324.562	3200.83
324.627	3140.34
324.691	3084.61
324.755	3015.01
324.82	2933.72
324.884	2854.45
324.948	2780.42
325.012	2683.43
325.077	2554.03
