Data from 20250703_urea_0.1M_MAYP1162681_07-11-04-943.txt Node
Date: Fri Jul 04 07:11:04 BST 2025
User: adleo
Spectrometer: MAYP116268
Trigger mode: 0
Integration Time (sec): 1.000000E0
Scans to average: 1
Electric dark correction enabled: true
Nonlinearity correction enabled: true
Boxcar width: 10
XAxis mode: Wavelengths
Number of Pixels in Spectrum: 2068
>>>>>Begin Spectral Data<<<<<
179.565	1260.03
179.642	1316.86
179.718	1363.94
179.795	1401.44
179.871	1433.68
179.948	1451.22
180.024	1475.1
180.101	1498.54
180.177	1512
180.254	1538.19
180.33	1560.55
180.407	1617.53
180.483	1716.87
180.56	1812.37
180.636	1897.69
180.712	1881.66
180.789	1891.98
180.865	1904
180.942	1908.32
181.018	1919.12
181.095	1932.62
181.171	1936.81
181.248	1937.95
181.324	1952.5
181.4	1960.3
181.477	1973.43
181.553	1988.88
181.63	2007.04
181.706	2021.31
181.782	2030.63
181.859	2025.87
181.935	2030.58
182.011	2025.87
182.088	2044.33
182.164	2063.12
182.24	2079.48
182.317	2092.27
182.393	2091.03
182.469	2107.73
182.546	2122.57
182.622	2125.37
182.698	2117.62
182.775	2130.75
182.851	2145.97
182.927	2137.79
183.003	2133.51
183.08	2128.32
183.156	2135.27
183.232	2130.75
183.308	2121.47
183.385	2129.61
183.461	2148.87
183.537	2153.01
183.613	2166
183.69	2155.72
183.766	2143.68
183.842	2150.39
183.918	2155.05
183.995	2165.47
184.071	2168.94
184.147	2161.09
184.223	2151.53
184.299	2165.66
184.375	2152.68
184.452	2158.1
184.528	2211.93
184.604	2223.58
184.68	2234.62
184.756	2245.99
184.832	2253.37
184.908	2257.46
184.985	2257.6
185.061	2242.23
185.137	2249.04
185.213	2239.67
185.289	2238.43
185.365	2230.49
185.441	2227.3
185.517	2238.63
185.593	2237.87
185.669	2234.58
185.745	2249.29
185.822	2263.41
185.898	2256.51
185.974	2266.02
186.05	2259.5
186.126	2222.62
186.202	2217.05
186.278	2213.48
186.354	2200.87
186.43	2206.01
186.506	2203.44
186.582	2203.87
186.658	2208.01
186.734	2186.7
186.81	2188.7
186.886	2192.17
186.962	2207.77
187.038	2207.77
187.114	2200.16
187.19	2205.77
187.266	2193.5
187.341	2190.6
187.417	2185.17
187.493	2185.03
187.569	2187.36
187.645	2180.8
187.721	2170.76
187.797	2175.13
187.873	2179.89
187.949	2175.66
188.025	2170.09
188.101	2175.32
188.176	2179.41
188.252	2176.94
188.328	2185.35
188.404	2183.17
188.48	2180.41
188.556	2171.08
188.632	2169.61
188.707	2172.22
188.783	2171.41
188.859	2166.8
188.935	2157.43
189.011	2165.95
189.086	2159.19
189.162	2152.39
189.238	2147.2
189.314	2142.11
189.39	2139.35
189.465	2130.36
189.541	2147.87
189.617	2133.36
189.693	2126.13
189.768	2128.42
189.844	2154.26
189.92	2147.79
189.996	2157.78
190.071	2170.54
190.147	2168.97
190.223	2179.15
190.298	2170.01
190.374	2156.5
190.45	2170.25
190.526	2179.86
190.601	2174.05
190.677	2176.81
190.753	2206.09
190.828	2211.75
190.904	2229.79
190.98	2244.44
191.055	2257.77
191.131	2247.73
191.207	2267.23
191.282	2282.03
191.358	2274.08
191.433	2257.89
191.509	2270.97
191.585	2268.55
191.66	2268.26
191.736	2277.11
191.811	2266.88
191.887	2284.78
191.963	2309.19
192.038	2315.57
192.114	2316.66
192.189	2321.09
192.265	2318.18
192.34	2293.85
192.416	2292.95
192.491	2286.29
192.567	2288.71
192.642	2289.14
192.718	2287.91
192.793	2276.63
192.869	2270.3
192.944	2272.58
193.02	2280.05
193.095	2283.96
193.171	2289.43
193.246	2288.43
193.322	2285.34
193.397	2285.62
193.473	2271.82
193.548	2249.88
193.624	2254.3
193.699	2249.97
193.775	2267.59
193.85	2266.87
193.925	2276.82
194.001	2276.82
194.076	2268.49
194.152	2257.54
194.227	2249.45
194.302	2240.8
194.378	2242.84
194.453	2239.27
194.529	2251.55
194.604	2236.37
194.679	2229.81
194.755	2210.78
194.83	2223.73
194.905	2222.63
194.981	2231.1
195.056	2224.16
195.131	2233.53
195.207	2232.63
195.282	2223.35
195.357	2204.45
195.433	2221.72
195.508	2208.92
195.583	2217.44
195.659	2229.76
195.734	2235.09
195.809	2235.43
195.884	2246.32
195.96	2245.99
196.035	2259.93
196.11	2256.17
196.185	2270.11
196.261	2273.11
196.336	2308.47
196.411	2292.95
196.486	2296.47
196.561	2290.05
196.637	2297.23
196.712	2315.7
196.787	2320.51
196.862	2335.59
196.937	2344.4
197.013	2350.87
197.088	2359.87
197.163	2381.2
197.238	2399.44
197.313	2402.82
197.388	2416.58
197.464	2445.2
197.539	2459.53
197.614	2455.67
197.689	2467.96
197.764	2486.1
197.839	2509.82
197.914	2498.53
197.989	2522.62
198.065	2538.43
198.14	2591.94
198.215	2617.99
198.29	2628.09
198.365	2639.05
198.44	2649.9
198.515	2681.64
198.59	2695.31
198.665	2724.03
198.74	2735.42
198.815	2737.04
198.89	2761.87
198.965	2792.8
199.04	2788.75
199.115	2806.28
199.19	2849.35
199.265	2851.59
199.34	2859.17
199.415	2895.22
199.49	2920.76
199.565	2930.1
199.64	2954.03
199.715	2950.74
199.79	2958.36
199.865	2967.33
199.94	2969.95
200.015	3004.85
200.09	3009.57
200.165	3017.53
200.24	3025.06
200.315	3061.47
200.39	3079.45
200.464	3083.79
200.539	3082.64
200.614	3099.28
200.689	3122.46
200.764	3128.66
200.839	3147.44
200.914	3157.69
200.989	3144.62
201.063	3157.02
201.138	3140.38
201.213	3139.67
201.288	3119.4
201.363	3126.17
201.438	3122.79
201.512	3137.14
201.587	3119.25
201.662	3120.68
201.737	3128.88
201.812	3137.04
201.886	3102.3
201.961	3112.7
202.036	3099.4
202.111	3100.4
202.186	3071.52
202.26	3056.35
202.335	3035.7
202.41	3031.13
202.485	3011.39
202.559	2993.75
202.634	2969.77
202.709	2983.11
202.784	2965.61
202.858	2969.62
202.933	2952.31
203.008	2952.22
203.082	2934.3
203.157	2939.11
203.232	2899.23
203.306	2889.26
203.381	2860.32
203.456	2846.22
203.53	2828.04
203.605	2815.8
203.68	2800.2
203.754	2804.59
203.829	2793.57
203.904	2783.71
203.978	2781.52
204.053	2793.72
204.127	2793.34
204.202	2805.06
204.277	2797.63
204.351	2808.02
204.426	2814.17
204.5	2823.03
204.575	2803.07
204.65	2833.06
204.724	2843.93
204.799	2873.52
204.873	2889.21
204.948	2915.09
205.022	2926.29
205.097	2946.14
205.171	2990.38
205.246	3026.74
205.32	3056.86
205.395	3091.68
205.469	3113.51
205.544	3157.61
205.618	3180.22
205.693	3230.8
205.767	3261.63
205.842	3326.34
205.916	3364.33
205.991	3402.42
206.065	3458.37
206.14	3527.79
206.214	3574.23
206.289	3619.18
206.363	3690.2
206.438	3747.63
206.512	3813.81
206.586	3893.53
206.661	3962.14
206.735	4002.66
206.81	4071.05
206.884	4152.5
206.958	4208.39
207.033	4295.91
207.107	4377.36
207.181	4484.59
207.256	4549.86
207.33	4640.68
207.405	4733.36
207.479	4833.41
207.553	4919.23
207.628	4981.22
207.702	5068.32
207.776	5143.76
207.851	5228.6
207.925	5328.45
207.999	5415.53
208.073	5498.5
208.148	5588.53
208.222	5661.51
208.296	5783.27
208.371	5882.93
208.445	5986.6
208.519	6111.62
208.593	6219.34
208.668	6306.57
208.742	6404.11
208.816	6499.13
208.89	6612.37
208.965	6707.07
209.039	6807.42
209.113	6924.48
209.187	7045.44
209.261	7145.07
209.336	7265.72
209.41	7386.35
209.484	7482.79
209.558	7608.7
209.632	7721.05
209.707	7836.3
209.781	7968.78
209.855	8081.24
209.929	8205.23
210.003	8309.19
210.077	8402.77
210.151	8549.03
210.226	8682.64
210.3	8804.33
210.374	8927.09
210.448	9025.91
210.522	9127.68
210.596	9238.36
210.67	9341.01
210.744	9483.35
210.818	9612.67
210.892	9734.52
210.966	9827.17
211.041	9943.77
211.115	10027.29
211.189	10147.37
211.263	10256.52
211.337	10351.43
211.411	10452.36
211.485	10539.62
211.559	10644.79
211.633	10735.6
211.707	10796.46
211.781	10890.24
211.855	10945.61
211.929	11028.58
212.003	11099.8
212.077	11204.23
212.151	11304.33
212.225	11402.74
212.299	11480.34
212.373	11552.97
212.447	11625.41
212.52	11741.37
212.594	11819.99
212.668	11915.66
212.742	11983.86
212.816	12058.77
212.89	12133.33
212.964	12222.56
213.038	12295.44
213.112	12388.96
213.186	12494.95
213.26	12555.06
213.333	12585.04
213.407	12676.68
213.481	12762.63
213.555	12848.86
213.629	12914.76
213.703	12972.89
213.777	13048.1
213.85	13107.97
213.924	13215.47
213.998	13293.51
214.072	13360.52
214.146	13424.87
214.219	13496.27
214.293	13566.36
214.367	13643.78
214.441	13724.28
214.515	13775.53
214.588	13827.74
214.662	13861.09
214.736	13905.49
214.81	13975.97
214.883	14061.83
214.957	14114.51
215.031	14165.23
215.105	14207.7
215.178	14257.78
215.252	14317.36
215.326	14358.53
215.4	14399.27
215.473	14413.15
215.547	14452.92
215.621	14491.87
215.694	14561.04
215.768	14596.81
215.842	14639.71
215.915	14680.54
215.989	14711.92
216.063	14765.23
216.136	14817.92
216.21	14870.56
216.284	14934.14
216.357	14995.6
216.431	15040.86
216.504	15093.16
216.578	15165.32
216.652	15240.37
216.725	15284.33
216.799	15346.51
216.873	15397.27
216.946	15463.26
217.02	15514.11
217.093	15562.6
217.167	15600.63
217.24	15629.79
217.314	15683.25
217.387	15732.03
217.461	15777.14
217.535	15840.43
217.608	15883.9
217.682	15939.77
217.755	16002.09
217.829	16034.72
217.902	16082.48
217.976	16134.35
218.049	16177.96
218.123	16209.58
218.196	16255.47
218.27	16301.11
218.343	16338.94
218.417	16391.96
218.49	16426.37
218.563	16490.91
218.637	16548.31
218.71	16615.4
218.784	16675.84
218.857	16724.27
218.931	16775.6
219.004	16829.97
219.077	16879.32
219.151	16925.87
219.224	16967.8
219.298	17003.28
219.371	17060.77
219.444	17097.98
219.518	17137.74
219.591	17176.53
219.665	17253.16
219.738	17299.81
219.811	17337.4
219.885	17385.5
219.958	17432.05
220.031	17479.86
220.105	17530.32
220.178	17573.55
220.251	17606.9
220.325	17654.56
220.398	17705.79
220.471	17757.69
220.544	17809.16
220.618	17848.14
220.691	17899.08
220.764	17936.33
220.838	17991.56
220.911	18036.23
220.984	18090.74
221.057	18144.91
221.131	18202.64
221.204	18214.06
221.277	18265.58
221.35	18340.8
221.424	18376.03
221.497	18424.36
221.57	18469.61
221.643	18510.48
221.716	18558.14
221.79	18586.76
221.863	18621.89
221.936	18660.49
222.009	18693.6
222.082	18723.43
222.155	18758.37
222.229	18810.46
222.302	18867.28
222.375	18897.35
222.448	18942.4
222.521	18981.63
222.594	19013.48
222.667	19039.94
222.74	19094.54
222.814	19135.6
222.887	19165.62
222.96	19215.45
223.033	19256.46
223.106	19291.88
223.179	19328.16
223.252	19369.42
223.325	19414.91
223.398	19439.97
223.471	19473.41
223.544	19507.96
223.617	19539
223.69	19567.04
223.763	19573.55
223.837	19596.1
223.91	19642.7
223.983	19642.12
224.056	19643.66
224.129	19673.35
224.202	19705.01
224.275	19714.12
224.348	19729.68
224.42	19740.38
224.493	19741.1
224.566	19749.83
224.639	19770.65
224.712	19782.65
224.785	19790.07
224.858	19804.43
224.931	19833.44
225.004	19848.71
225.077	19860.91
225.15	19866.35
225.223	19885.1
225.296	19941.87
225.369	19942.74
225.442	19940.04
225.514	19965.72
225.587	20004.85
225.66	20021.96
225.733	20049.38
225.806	20073.91
225.879	20081.09
225.952	20082.39
226.025	20113.72
226.097	20147.12
226.17	20166.25
226.243	20163.16
226.316	20170.92
226.389	20194.44
226.461	20203.45
226.534	20218.87
226.607	20238.87
226.68	20267.55
226.753	20284.12
226.825	20256.03
226.898	20284.08
226.971	20291.64
227.044	20312.27
227.117	20310.87
227.189	20326.92
227.262	20335.69
227.335	20351.64
227.407	20360.56
227.48	20373.42
227.553	20380.51
227.626	20376.17
227.698	20378.29
227.771	20390.05
227.844	20398.72
227.916	20394.82
227.989	20383.11
228.062	20385.86
228.134	20410.63
228.207	20417.09
228.28	20416.12
228.352	20437.18
228.425	20443.5
228.498	20462.1
228.57	20446.24
228.643	20470.39
228.716	20471.16
228.788	20467.64
228.861	20459.88
228.934	20471.16
229.006	20480.65
229.079	20484.75
229.151	20485.09
229.224	20478.05
229.296	20483.35
229.369	20507.64
229.442	20532.03
229.514	20531.59
229.587	20550.1
229.659	20528.9
229.732	20527.35
229.804	20536.65
229.877	20553.91
229.949	20564.32
230.022	20581.57
230.094	20594.44
230.167	20604.95
230.239	20593.33
230.312	20595.6
230.384	20618.87
230.457	20630.78
230.529	20636.32
230.602	20636.85
230.674	20641.38
230.747	20656.9
230.819	20671.45
230.892	20639.5
230.964	20627.36
231.037	20635.31
231.109	20622.92
231.181	20635.02
231.254	20629.86
231.326	20622.29
231.399	20600.41
231.471	20592.22
231.544	20571.79
231.616	20571.11
231.688	20560.99
231.761	20547.98
231.833	20533.23
231.905	20502.63
231.978	20488.36
232.05	20472.12
232.122	20458.58
232.195	20437.18
232.267	20433.38
232.339	20410.92
232.412	20417.86
232.484	20409.95
232.556	20394.48
232.629	20395.54
232.701	20377.57
232.773	20361.62
232.846	20344.7
232.918	20344.41
232.99	20327.88
233.062	20323.98
233.135	20320.41
233.207	20286.68
233.279	20281.67
233.351	20275.98
233.424	20256.32
233.496	20225.91
233.568	20246.25
233.64	20223.21
233.713	20206.73
233.785	20191.31
233.857	20193.96
233.929	20160.22
234.001	20157.24
234.074	20165.62
234.146	20135.55
234.218	20127.31
234.29	20110.01
234.362	20091.84
234.434	20055.55
234.507	20023.41
234.579	19988.71
234.651	19967.31
234.723	19967.75
234.795	19963.46
234.867	19948.52
234.939	19945.29
235.012	19931.31
235.084	19913.63
235.156	19905.87
235.228	19894.21
235.3	19870.59
235.372	19844.43
235.444	19835.85
235.516	19790.84
235.588	19761.1
235.66	19744.43
235.732	19716.14
235.804	19751.9
235.876	19741.11
235.948	19737.59
236.02	19715.81
236.092	19689.01
236.164	19664.19
236.236	19626.03
236.308	19596.58
236.38	19576.63
236.452	19550.22
236.524	19538.66
236.596	19521.07
236.668	19505.75
236.74	19478.95
236.812	19461.75
236.884	19444.98
236.956	19423.58
237.028	19397.46
237.1	19363.05
237.172	19351.44
237.244	19341.66
237.316	19281.32
237.388	19238.05
237.46	19209.04
237.532	19208.8
237.604	19176.66
237.675	19162.34
237.747	19146.1
237.819	19115.07
237.891	19082.01
237.963	19041.53
238.035	19000.28
238.107	18936.62
238.178	18914.26
238.25	18884.77
238.322	18873.25
238.394	18829.11
238.466	18797.45
238.538	18781.84
238.609	18758.8
238.681	18705.65
238.753	18658.47
238.825	18619.92
238.897	18601.03
238.968	18585.46
239.04	18548.36
239.112	18551.68
239.184	18508.36
239.255	18474.43
239.327	18448.8
239.399	18420.03
239.471	18398.48
239.542	18376.75
239.614	18355.21
239.686	18296.75
239.758	18282.64
239.829	18227.12
239.901	18205.68
239.973	18173.72
240.044	18146.21
240.116	18124.14
240.188	18095.56
240.259	18070.21
240.331	18043.47
240.403	18017.78
240.474	17965.59
240.546	17926.7
240.618	17868.44
240.689	17835.28
240.761	17806.41
240.833	17793.35
240.904	17763.38
240.976	17730.08
241.048	17700.73
241.119	17679.52
241.191	17662.75
241.262	17637.5
241.334	17610.37
241.405	17579.77
241.477	17541.21
241.549	17501.36
241.62	17469.02
241.692	17445.6
241.763	17433.79
241.835	17392.2
241.906	17359.57
241.978	17318.37
242.049	17299.48
242.121	17285.84
242.192	17265.16
242.264	17217.07
242.335	17158.99
242.407	17134.56
242.478	17103.28
242.55	17075.9
242.621	17034.7
242.693	16994.46
242.764	16953.01
242.836	16918.41
242.907	16887.66
242.979	16867.75
243.05	16835.17
243.122	16796.09
243.193	16759.94
243.264	16695.6
243.336	16668.85
243.407	16654.78
243.479	16644.85
243.55	16612.03
243.622	16587.31
243.693	16559.98
243.764	16550.19
243.836	16515.25
243.907	16482.86
243.978	16448.06
244.05	16418.04
244.121	16373.36
244.192	16350.71
244.264	16304.2
244.335	16269.59
244.407	16219.27
244.478	16190.26
244.549	16156.95
244.62	16120.7
244.692	16094.24
244.763	16071.11
244.834	16038.62
244.906	15987.82
244.977	15961.17
245.048	15940.15
245.119	15884.72
245.191	15837.97
245.262	15782.35
245.333	15763.07
245.405	15730.73
245.476	15705.9
245.547	15678.53
245.618	15648.26
245.689	15615.91
245.761	15591.81
245.832	15565.54
245.903	15546.84
245.974	15513.44
246.045	15483.41
246.117	15470.35
246.188	15417.85
246.259	15373.94
246.33	15333.89
246.401	15308.24
246.473	15260.33
246.544	15221.96
246.615	15208.13
246.686	15175.01
246.757	15158.58
246.828	15114.47
246.899	15096.92
246.97	15048.38
247.042	15006.54
247.113	14987.26
247.184	14981.57
247.255	14942.1
247.326	14909.37
247.397	14871.09
247.468	14847.42
247.539	14820.72
247.61	14771.45
247.681	14763.16
247.752	14751.4
247.823	14708.69
247.894	14683.91
247.965	14640.48
248.037	14609.44
248.108	14568.66
248.179	14540.46
248.25	14513.08
248.321	14489.89
248.392	14452.58
248.463	14452.19
248.534	14423.56
248.605	14397.53
248.675	14353.81
248.746	14338.82
248.817	14320.45
248.888	14293.21
248.959	14239.71
249.03	14216.52
249.101	14198.15
249.172	14158.72
249.243	14113.17
249.314	14115.82
249.385	14079.95
249.456	14055.75
249.527	14026.06
249.598	14003.45
249.669	13977.13
249.739	13946.81
249.81	13929.69
249.881	13879.7
249.952	13844.13
250.023	13824.7
250.094	13785.6
250.165	13754.51
250.235	13725.54
250.306	13696.04
250.377	13661.81
250.448	13650.87
250.519	13603.87
250.59	13590.51
250.66	13566.02
250.731	13554.07
250.802	13519.36
250.873	13495.88
250.944	13480.7
251.014	13437.79
251.085	13434.32
251.156	13414.56
251.227	13404.48
251.297	13392.29
251.368	13383.08
251.439	13369.92
251.51	13348.66
251.58	13316.36
251.651	13285.22
251.722	13273.99
251.792	13233.78
251.863	13211.32
251.934	13197.92
252.005	13201.58
252.075	13174.92
252.146	13159.74
252.217	13153.13
252.287	13141.08
252.358	13115.58
252.429	13108.88
252.499	13088.15
252.57	13066.65
252.641	13052.14
252.711	13029.92
252.782	12994.73
252.852	12994.97
252.923	12974.68
252.994	12954.09
253.064	12948.69
253.135	12919.14
253.205	12879.76
253.276	12876.14
253.347	12872.82
253.417	12843.6
253.488	12821.48
253.558	12791.88
253.629	12773.51
253.699	12744.3
253.77	12727.14
253.841	12703.47
253.911	12682.65
253.982	12667.08
254.052	12655.75
254.123	12628.75
254.193	12607.88
254.264	12619.35
254.334	12583.05
254.405	12544.78
254.475	12510.89
254.546	12485.63
254.616	12476.28
254.687	12466.45
254.757	12449.91
254.827	12424.61
254.898	12405.52
254.968	12374.14
255.039	12344.2
255.109	12320.15
255.18	12292.92
255.25	12252.38
255.321	12246.3
255.391	12211.74
255.461	12210.3
255.532	12156.93
255.602	12131.72
255.673	12089.16
255.743	12050.7
255.813	12008.95
255.884	12003.36
255.954	11994.44
256.024	11990.59
256.095	11973.77
256.165	11937.95
256.235	11926.1
256.306	11904.21
256.376	11902.28
256.446	11894.96
256.517	11887.49
256.587	11883.44
256.657	11865.03
256.728	11850.23
256.798	11830.47
256.868	11807.76
256.938	11775.71
257.009	11765.16
257.079	11757.49
257.149	11766.99
257.219	11734.69
257.29	11714.69
257.36	11678.26
257.43	11668.76
257.5	11628.95
257.571	11604.75
257.641	11595.26
257.711	11560.22
257.781	11551.45
257.852	11534.91
257.922	11496.65
257.992	11476.69
258.062	11455.58
258.132	11448.01
258.202	11425.17
258.273	11405.84
258.343	11404.59
258.413	11385.65
258.483	11369.65
258.553	11340.15
258.623	11310.18
258.693	11294.03
258.764	11296.3
258.834	11291.86
258.904	11272.58
258.974	11249.89
259.044	11229.55
259.114	11219.19
259.184	11202.61
259.254	11179.77
259.324	11134.99
259.394	11125.6
259.464	11127.77
259.535	11105.79
259.605	11086.18
259.675	11060.92
259.745	11042.76
259.815	11011.82
259.885	10985.89
259.955	10996.98
260.025	10974.38
260.095	10961.99
260.165	10952.45
260.235	10950.91
260.305	10926.57
260.375	10900.55
260.445	10900.98
260.515	10905.08
260.585	10898.33
260.655	10878.82
260.725	10870.87
260.795	10871.73
260.865	10873.52
260.934	10845.23
261.004	10840.17
261.074	10817.09
261.144	10820.7
261.214	10818.15
261.284	10809.52
261.354	10810.1
261.424	10782.1
261.494	10784.85
261.564	10765.86
261.634	10763.07
261.703	10730.45
261.773	10723.02
261.843	10706.11
261.913	10693.78
261.983	10659.37
262.053	10645.06
262.123	10635.62
262.192	10606.76
262.262	10594.66
262.332	10566.28
262.402	10555.83
262.472	10534.24
262.541	10504.08
262.611	10499.12
262.681	10474.21
262.751	10463.9
262.821	10440.34
262.89	10403.19
262.96	10392.45
263.03	10393.89
263.1	10381.8
263.169	10367.78
263.239	10355.93
263.309	10358
263.379	10350.67
263.448	10339.16
263.518	10333.52
263.588	10316.57
263.657	10319.84
263.727	10316.18
263.797	10300.62
263.867	10287.18
263.936	10261.65
264.006	10258.8
264.076	10239.34
264.145	10224.84
264.215	10201.96
264.285	10199.4
264.354	10175.56
264.424	10158.99
264.494	10132.3
264.563	10106.43
264.633	10109.36
264.702	10099.39
264.772	10067.31
264.842	10046.79
264.911	10038.26
264.981	10006.85
265.05	9990.76
265.12	9973.28
265.19	9960.17
265.259	9956.7
265.329	9945.72
265.398	9936.14
265.468	9952.13
265.537	9931.18
265.607	9921.45
265.676	9924.19
265.746	9910.94
265.815	9909.84
265.885	9890.19
265.955	9866.92
266.024	9856.04
266.094	9827.42
266.163	9832.24
266.232	9841.97
266.302	9831.33
266.371	9818.37
266.441	9805.56
266.51	9810.33
266.58	9791.06
266.649	9765.92
266.719	9764.91
266.788	9757.87
266.858	9767.22
266.927	9730.61
266.996	9718.81
267.066	9710.34
267.135	9680
267.205	9683.94
267.274	9675.76
267.343	9677.15
267.413	9663.48
267.482	9666.03
267.552	9661.65
267.621	9630.53
267.69	9595.28
267.76	9583.29
267.829	9573.03
267.898	9560.22
267.968	9531.91
268.037	9530.56
268.106	9529.98
268.176	9503.59
268.245	9488.85
268.314	9464.77
268.384	9466.74
268.453	9460.05
268.522	9454.03
268.592	9451.38
268.661	9424.17
268.73	9422.63
268.799	9401.06
268.869	9410.35
268.938	9378.81
269.007	9366.48
269.076	9354.3
269.146	9355.31
269.215	9350.93
269.284	9355.41
269.353	9341.11
269.422	9335.28
269.492	9320.59
269.561	9279.19
269.63	9273.65
269.699	9259.11
269.768	9251.07
269.838	9238.5
269.907	9231.04
269.976	9207.78
270.045	9175.91
270.114	9169.36
270.183	9145.1
270.253	9139.8
270.322	9111.3
270.391	9098.88
270.46	9103.4
270.529	9104.32
270.598	9102.97
270.667	9088.72
270.736	9068.64
270.806	9067.05
270.875	9064.02
270.944	9046.64
271.013	9079.33
271.082	9071.92
271.151	9067.97
271.22	9037.45
271.289	9027.44
271.358	9020.5
271.427	9018.1
271.496	9016.8
271.565	9007.51
271.634	9011.02
271.703	9033.99
271.772	9034.52
271.841	9023.25
271.91	8997.4
271.979	8987.82
272.048	8963.12
272.117	8967.55
272.186	8954.89
272.255	8953.4
272.324	8947.82
272.393	8938.82
272.462	8910.79
272.531	8904.15
272.6	8891.78
272.669	8903.52
272.738	8891.54
272.807	8884.03
272.876	8859.82
272.945	8890.58
273.013	8885.81
273.082	8884.66
273.151	8849.08
273.22	8850.04
273.289	8843.54
273.358	8849.42
273.427	8834.64
273.496	8834.97
273.564	8826.21
273.633	8823.85
273.702	8807.92
273.771	8800.51
273.84	8804.55
273.909	8803.11
273.977	8798.73
274.046	8790.01
274.115	8794.35
274.184	8775.96
274.253	8775.48
274.322	8787.18
274.39	8750.88
274.459	8742.6
274.528	8714.11
274.597	8699.77
274.665	8695.63
274.734	8703.52
274.803	8695.72
274.872	8695.39
274.94	8685.71
275.009	8738.11
275.078	8727.09
275.147	8718.81
275.215	8715.29
275.284	8722.18
275.353	8716.21
275.421	8695.27
275.49	8707.64
275.559	8692.87
275.627	8692.1
275.696	8677.47
275.765	8681.56
275.833	8674.34
275.902	8672.66
275.971	8677.56
276.039	8692.53
276.108	8694.79
276.177	8689.64
276.245	8673.47
276.314	8663.7
276.383	8667.6
276.451	8602.02
276.52	8606.4
276.588	8621.27
276.657	8625.07
276.725	8609.1
276.794	8596.39
276.863	8608.37
276.931	8587.72
277	8598.99
277.068	8605.68
277.137	8623.87
277.205	8617.32
277.274	8635.61
277.342	8643.12
277.411	8628.2
277.48	8612.08
277.548	8598.41
277.617	8596.82
277.685	8592.73
277.754	8597.21
277.822	8588.79
277.89	8604.14
277.959	8594.71
278.027	8579.31
278.096	8573.15
278.164	8601.36
278.233	8602.56
278.301	8590.86
278.37	8591.25
278.438	8573.49
278.507	8575.17
278.575	8552.46
278.643	8544.81
278.712	8526.18
278.78	8507.03
278.849	8525.46
278.917	8540.47
278.985	8537.54
279.054	8543.84
279.122	8555.1
279.191	8555.68
279.259	8554.96
279.327	8530.65
279.396	8546.63
279.464	8540.18
279.532	8543.31
279.601	8539.17
279.669	8538.88
279.737	8549.23
279.806	8555.58
279.874	8561.88
279.942	8559.38
280.011	8556.25
280.079	8562.03
280.147	8574.83
280.215	8582.62
280.284	8571.94
280.352	8556.06
280.42	8563.42
280.488	8550.67
280.557	8545.76
280.625	8548.22
280.693	8545.18
280.761	8548.36
280.83	8536.28
280.898	8548.65
280.966	8527.81
281.034	8494.07
281.102	8476.8
281.171	8468.43
281.239	8471.36
281.307	8467.37
281.375	8462.99
281.443	8484.6
281.512	8483.97
281.58	8496.39
281.648	8483.69
281.716	8485.32
281.784	8486.43
281.852	8481.38
281.92	8483.5
281.989	8498.8
282.057	8477.58
282.125	8519.12
282.193	8517.58
282.261	8514.35
282.329	8508.63
282.397	8510.65
282.465	8512.09
282.533	8530.66
282.601	8526.09
282.67	8505.4
282.738	8490.77
282.806	8495.34
282.874	8479.7
282.942	8479.75
283.01	8467.09
283.078	8472.96
283.146	8466.42
283.214	8468.78
283.282	8474.89
283.35	8487.64
283.418	8476.33
283.486	8490.81
283.554	8450.24
283.622	8454.38
283.69	8448.51
283.758	8439.56
283.826	8447.4
283.894	8464.53
283.962	8478.39
284.03	8489.56
284.098	8488.83
284.165	8490.33
284.233	8490.66
284.301	8487.29
284.369	8483.54
284.437	8475.7
284.505	8473.48
284.573	8488.88
284.641	8485.51
284.709	8484.31
284.777	8465.35
284.845	8474.88
284.912	8474.49
284.98	8480.8
285.048	8473.48
285.116	8487.34
285.184	8503.7
285.252	8503.17
285.319	8480.46
285.387	8477.57
285.455	8459.38
285.523	8468.91
285.591	8469.53
285.659	8472.9
285.726	8482.96
285.794	8465.21
285.862	8461.36
285.93	8460.88
285.997	8461.41
286.065	8457.7
286.133	8448.7
286.201	8450.53
286.269	8435.51
286.336	8427.96
286.404	8422.62
286.472	8428.83
286.539	8401.35
286.607	8386.1
286.675	8384.42
286.743	8396.2
286.81	8384.32
286.878	8403.56
286.946	8393.07
287.013	8392.79
287.081	8389.27
287.149	8373.92
287.216	8391.58
287.284	8387.97
287.352	8388.69
287.419	8379.45
287.487	8391.73
287.555	8401.01
287.622	8396.63
287.69	8400.68
287.758	8416.7
287.825	8408.04
287.893	8395.05
287.96	8407.22
288.028	8417.57
288.096	8418.53
288.163	8420.79
288.231	8416.51
288.298	8410.44
288.366	8429.11
288.433	8421.32
288.501	8415.11
288.569	8418.63
288.636	8413.24
288.704	8430.27
288.771	8435.37
288.839	8430.03
288.906	8426.04
288.974	8433.16
289.041	8427.53
289.109	8421.85
289.176	8426.38
289.244	8433.21
289.311	8445.24
289.379	8451.83
289.446	8456.5
289.514	8463.48
289.581	8462.66
289.649	8462.47
289.716	8466.94
289.783	8458.33
289.851	8488.45
289.918	8488.02
289.986	8498.27
290.053	8506.49
290.121	8501.92
290.188	8504.91
290.255	8537.39
290.323	8529.16
290.39	8522.09
290.458	8529.74
290.525	8537.92
290.592	8527.09
290.66	8536.71
290.727	8536.42
290.794	8553.6
290.862	8550.24
290.929	8553.22
290.996	8555.29
291.064	8562.36
291.131	8572.52
291.198	8583.06
291.266	8577.47
291.333	8581.13
291.4	8588.69
291.468	8603.75
291.535	8601.3
291.602	8599.81
291.669	8593.02
291.737	8599.03
291.804	8596.53
291.871	8614.77
291.938	8624.2
292.006	8655.2
292.073	8659.29
292.14	8669.3
292.207	8660.3
292.275	8666.37
292.342	8673.88
292.409	8699.39
292.476	8728.17
292.543	8715.32
292.611	8718.5
292.678	8732.6
292.745	8757.24
292.812	8765.91
292.879	8768.55
292.946	8776.16
293.014	8795.22
293.081	8798.3
293.148	8810.09
293.215	8823.37
293.282	8818.46
293.349	8826.31
293.416	8806.24
293.484	8821.01
293.551	8830.45
293.618	8844.16
293.685	8870.06
293.752	8861.64
293.819	8854.52
293.886	8834.87
293.953	8848.74
294.02	8858.8
294.087	8869.1
294.154	8860.63
294.221	8874.01
294.288	8865.54
294.356	8881.47
294.423	8887.49
294.49	8882.44
294.557	8899.28
294.624	8891.49
294.691	8915.65
294.758	8918.88
294.825	8930.52
294.892	8926.72
294.959	8922.77
295.026	8934.62
295.093	8922.92
295.16	8924.7
295.226	8932.88
295.293	8966.78
295.36	8974.67
295.427	8986.85
295.494	8994.31
295.561	9006.59
295.628	9031.58
295.695	9050.4
295.762	9053.24
295.829	9063.64
295.896	9075.92
295.963	9081.89
296.03	9096.47
296.096	9098.83
296.163	9107.21
296.23	9117.47
296.297	9129.89
296.364	9131.52
296.431	9132.63
296.498	9128.39
296.564	9155.25
296.631	9151.55
296.698	9133.97
296.765	9142.11
296.832	9127.86
296.899	9115.24
296.965	9132.63
297.032	9106.62
297.099	9123.67
297.166	9131.47
297.233	9118.42
297.299	9118.28
297.366	9124.05
297.433	9124.29
297.5	9136.77
297.566	9138.16
297.633	9139.12
297.7	9142.64
297.767	9144.52
297.833	9151.21
297.9	9157.9
297.967	9141.39
298.033	9160.65
298.1	9191.85
298.167	9189.83
298.234	9194.79
298.3	9206.82
298.367	9201.86
298.434	9211.11
298.5	9199.26
298.567	9197.72
298.634	9201.43
298.7	9216.93
298.767	9216.45
298.834	9237.59
298.9	9226.22
298.967	9223.14
299.033	9223.96
299.1	9233.83
299.167	9250.01
299.233	9247.55
299.3	9265.18
299.366	9283.04
299.433	9296.14
299.5	9268.25
299.566	9274.51
299.633	9297.63
299.699	9309.86
299.766	9306.73
299.832	9319.2
299.899	9330.13
299.965	9343.56
300.032	9340.19
300.099	9339.14
300.165	9347.71
300.232	9341.74
300.298	9349.73
300.365	9365.04
300.431	9371.83
300.498	9367.74
300.564	9373.23
300.631	9382.9
300.697	9393.6
300.763	9399.13
300.83	9395.42
300.896	9407.94
300.963	9416.8
301.029	9417.86
301.096	9416.23
301.162	9422.53
301.229	9409.53
301.295	9398.94
301.361	9399.61
301.428	9411.65
301.494	9409.53
301.561	9407.94
301.627	9406.21
301.693	9406.35
301.76	9412.18
301.826	9411.7
301.892	9423.35
301.959	9435.63
302.025	9434.14
302.092	9431.49
302.158	9437.08
302.224	9435.39
302.291	9429.03
302.357	9425.52
302.423	9420.37
302.49	9418.25
302.556	9429.76
302.622	9428.02
302.688	9445.12
302.755	9459.42
302.821	9466.69
302.887	9478.1
302.954	9475.84
303.02	9491.78
303.086	9494.81
303.152	9488.75
303.219	9480.08
303.285	9486.97
303.351	9494.87
303.417	9500.26
303.483	9486.82
303.55	9474.83
303.616	9476.13
303.682	9473.92
303.748	9470.55
303.815	9487.21
303.881	9500.74
303.947	9495.4
304.013	9501.66
304.079	9490.63
304.145	9465.2
304.212	9466.79
304.278	9454.85
304.344	9453.45
304.41	9437.18
304.476	9426.87
304.542	9420.71
304.608	9432.51
304.674	9408.43
304.741	9393.11
304.807	9398.7
304.873	9399.42
304.939	9417.96
305.005	9396.49
305.071	9397.74
305.137	9396
305.203	9366.24
305.269	9359.26
305.335	9371.64
305.401	9372.79
305.467	9368.99
305.533	9382.81
305.599	9381.99
305.666	9395.62
305.732	9398.03
305.798	9412.81
305.864	9443.29
305.93	9450.13
305.996	9450.04
306.062	9456.63
306.128	9460.15
306.194	9438.72
306.259	9444.5
306.325	9440.02
306.391	9456.25
306.457	9465.54
306.523	9470.16
306.589	9496.65
306.655	9489.81
306.721	9466.89
306.787	9453.4
306.853	9470.55
306.919	9451.91
306.985	9452.1
307.051	9441.32
307.117	9429.38
307.183	9420.52
307.248	9390.08
307.314	9391.48
307.38	9387.62
307.446	9397.3
307.512	9386.03
307.578	9395.28
307.644	9385.12
307.709	9374.43
307.775	9372.98
307.841	9370.53
307.907	9374.67
307.973	9358.92
308.039	9357.62
308.104	9362.34
308.17	9366.58
308.236	9352.52
308.302	9358.73
308.368	9341.49
308.433	9341.2
308.499	9339.85
308.565	9327
308.631	9332.1
308.696	9312.6
308.762	9303.59
308.828	9296.28
308.894	9276.05
308.959	9256.84
309.025	9253.81
309.091	9255.78
309.156	9242.11
309.222	9237.54
309.288	9222.56
309.354	9196.32
309.419	9194.06
309.485	9185.87
309.551	9188.67
309.616	9168.49
309.682	9162.33
309.748	9156.26
309.813	9152.8
309.879	9140.47
309.945	9132.91
310.01	9122.42
310.076	9129.11
310.141	9125.69
310.207	9112.4
310.273	9117.79
310.338	9120.59
310.404	9102.82
310.469	9087.03
310.535	9078.17
310.601	9058.53
310.666	9066.04
310.732	9079.95
310.797	9062.62
310.863	9050.1
310.928	9045.29
310.994	9054.68
311.059	9055.83
311.125	9055.4
311.191	9068.98
311.256	9059.69
311.322	9064.98
311.387	9043.61
311.453	9418.23
311.518	9388.63
311.584	9385.5
311.649	9394.5
311.715	9382.61
311.78	9389.2
311.846	9381.55
311.911	9387.95
311.976	9391.66
312.042	9373.32
312.107	9357
312.173	9348.91
312.238	9342.32
312.304	9332.21
312.369	9319.74
312.434	9305.15
312.5	9300.34
312.565	9257.63
312.631	9264.08
312.696	9259.22
312.761	9264.76
312.827	8874.25
312.892	8913
312.958	8912.09
313.023	8903.81
313.088	8902.94
313.154	8885.66
313.219	8876.66
313.284	8869.97
313.35	8861.21
313.415	8848.26
313.48	8843.73
313.546	8851.34
313.611	8866.41
313.676	8856.2
313.741	8845.13
313.807	8851.82
313.872	8851.2
313.937	8860.73
314.003	8873.53
314.068	8865.59
314.133	8874.06
314.198	8867.32
314.264	8851.77
314.329	8838.82
314.394	8840.17
314.459	8837.38
314.525	8860.96
314.59	8858.17
314.655	8844.74
314.72	8851.48
314.785	8856.05
314.851	8855.48
314.916	8830.3
314.981	8808.98
315.046	8805.27
315.111	8796.8
315.176	8788.19
315.242	8794.4
315.307	8790.45
315.372	8765.85
315.437	8756.47
315.502	8747.61
315.567	8754.2
315.632	8734.71
315.698	8737.07
315.763	8731
315.828	8724.17
315.893	8713.53
315.958	8710.98
316.023	8696.16
316.088	8680.85
316.153	8659.34
316.218	8647.41
316.283	8638.65
316.348	8625.22
316.413	8621.09
316.479	8607.18
316.544	8570.18
316.609	8541.97
316.674	8506.08
316.739	8478.89
316.804	8451.42
316.869	8417.21
316.934	8381.26
316.999	8355.47
317.064	8302.79
317.129	8256.65
317.194	8223.98
317.259	8174.9
317.324	8128.53
317.389	8092.36
317.454	8053.54
317.518	8020.69
317.583	7998.7
317.648	7979.46
317.713	7946.13
317.778	7880.72
317.843	7854.65
317.908	7820.56
317.973	7781.07
318.038	7758.13
318.103	7718.71
318.168	7692.31
318.233	7663.46
318.297	7617.73
318.362	7583.26
318.427	7547.73
318.492	7519.08
318.557	7472.07
318.622	7450.58
318.687	7424.24
318.751	7383.25
318.816	7350.7
318.881	7318.12
318.946	7260.73
319.011	7211.8
319.075	7164.8
319.14	7140.01
319.205	7094.79
319.27	7061.21
319.335	7016.43
319.399	6973.67
319.464	6948.3
319.529	6893.58
319.594	6853.03
319.658	6822.58
319.723	6778.87
319.788	6746.88
319.853	6697.5
319.917	6669.56
319.982	6614.04
320.047	6577.4
320.112	6554.59
320.176	6506.14
320.241	6475.79
320.306	6451.64
320.37	6410.21
320.435	6386.98
320.5	6358.56
320.564	6319.87
320.629	6276.06
320.694	6246.68
320.758	6207.14
320.823	6158.24
320.888	6132.52
320.952	6084.01
321.017	6042.27
321.082	6007.39
321.146	5981.53
321.211	5949.67
321.275	5906.75
321.34	5866.99
321.405	5828.28
321.469	5779.8
321.534	5739.52
321.598	5690.18
321.663	5658.8
321.727	5627.35
321.792	5577.63
321.857	5533.18
321.921	5497.08
321.986	5458.22
322.05	5398.94
322.115	5362.99
322.179	5327.11
322.244	5269.61
322.308	5237.8
322.373	5194.59
322.437	5155.15
322.502	5124.76
322.566	5078.1
322.631	5047.55
322.695	5013.06
322.76	4969.58
322.824	4939.31
322.889	4899.34
322.953	4854.82
323.018	4790.32
323.082	4724.95
323.146	4676.48
323.211	4622.68
323.275	4579.66
323.34	4541.14
323.404	4509.71
323.468	4460.44
323.533	4413.56
323.597	4371.01
323.662	4319.83
323.726	4283.86
323.79	4232.98
323.855	4168.35
323.919	4121.64
323.983	4073.82
324.048	4004.35
324.112	4153.61
324.177	4026.84
324.241	3817.07
324.305	3613.17
324.37	3410.9
324.434	3223.92
324.498	3179.73
324.562	3131.37
324.627	3071.05
324.691	3011.79
324.755	2945.49
324.82	2876.18
324.884	2803.12
324.948	2734.5
325.012	2643.74
325.077	2520.87
