Data from 20250703_urea_0.1M_MAYP1162681_21-51-05-653.txt Node
Date: Thu Jul 03 21:51:05 BST 2025
User: adleo
Spectrometer: MAYP116268
Trigger mode: 0
Integration Time (sec): 1.000000E0
Scans to average: 1
Electric dark correction enabled: true
Nonlinearity correction enabled: true
Boxcar width: 10
XAxis mode: Wavelengths
Number of Pixels in Spectrum: 2068
>>>>>Begin Spectral Data<<<<<
179.565	1384.79
179.642	1454.15
179.718	1505.77
179.795	1552.01
179.871	1589.76
179.948	1613.42
180.024	1635.3
180.101	1661.79
180.177	1677.72
180.254	1702.84
180.33	1729.38
180.407	1796.35
180.483	1905.39
180.56	2009.84
180.636	2106.75
180.712	2095.33
180.789	2105.84
180.865	2119.77
180.942	2126.72
181.018	2138.52
181.095	2151.27
181.171	2156.64
181.248	2154.36
181.324	2171.87
181.4	2178.82
181.477	2189.67
181.553	2203.61
181.63	2225.64
181.706	2243.39
181.782	2253.28
181.859	2251.57
181.935	2257.47
182.011	2253.9
182.088	2273.75
182.164	2294.08
182.24	2308.59
182.317	2315.06
182.393	2317.01
182.469	2333.76
182.546	2350.37
182.622	2354.85
182.698	2347.9
182.775	2360.94
182.851	2379.55
182.927	2371.41
183.003	2367.79
183.08	2364.42
183.156	2372.79
183.232	2369.32
183.308	2355.47
183.385	2365.08
183.461	2388.07
183.537	2387.12
183.613	2401.16
183.69	2390.26
183.766	2380.21
183.842	2390.07
183.918	2398.82
183.995	2409.77
184.071	2414.92
184.147	2409.25
184.223	2398.07
184.299	2418.21
184.375	2407.93
184.452	2417.22
184.528	2469.79
184.604	2481.31
184.68	2495.5
184.756	2503.78
184.832	2511.3
184.908	2518.11
184.985	2515.11
185.061	2496.64
185.137	2507.59
185.213	2497.78
185.289	2497.07
185.365	2489.02
185.441	2488.88
185.517	2500.46
185.593	2497.65
185.669	2492.74
185.745	2503.41
185.822	2520.78
185.898	2508.3
185.974	2519.15
186.05	2508.05
186.126	2471.91
186.202	2464.67
186.278	2459.06
186.354	2449.77
186.43	2458.87
186.506	2456.25
186.582	2458.82
186.658	2464.72
186.734	2441.87
186.81	2447.02
186.886	2448.68
186.962	2463.53
187.038	2458.06
187.114	2449.91
187.19	2457.1
187.266	2445.87
187.341	2446.97
187.417	2439.73
187.493	2441.44
187.569	2441.25
187.645	2433.87
187.721	2421.35
187.797	2429.2
187.873	2430.82
187.949	2424.78
188.025	2414.97
188.101	2419.25
188.176	2422.87
188.252	2419.39
188.328	2428.1
188.404	2423.29
188.48	2421.1
188.556	2413.2
188.632	2411.58
188.707	2411.77
188.783	2409.87
188.859	2404.49
188.935	2390.35
189.011	2399.01
189.086	2389.3
189.162	2381.16
189.238	2378.59
189.314	2376.45
189.39	2370.02
189.465	2362.64
189.541	2380.36
189.617	2366.12
189.693	2360.37
189.768	2363.08
189.844	2389.89
189.92	2381.33
189.996	2393.37
190.071	2406.99
190.147	2402.61
190.223	2412.47
190.298	2404.9
190.374	2390.76
190.45	2406.18
190.526	2418.08
190.601	2411.98
190.677	2416.74
190.753	2449.66
190.828	2451.66
190.904	2468.37
190.98	2484.99
191.055	2498.85
191.131	2487.66
191.207	2506.08
191.282	2516.74
191.358	2509.51
191.433	2492.22
191.509	2508.3
191.585	2503.4
191.66	2504.63
191.736	2516.58
191.811	2509.35
191.887	2529.11
191.963	2554.54
192.038	2558.92
192.114	2556.35
192.189	2560.11
192.265	2555.16
192.34	2529.91
192.416	2530.43
192.491	2523.53
192.567	2524.24
192.642	2527.39
192.718	2529.15
192.793	2516.72
192.869	2509.77
192.944	2511.72
193.02	2520.63
193.095	2526.25
193.171	2531.44
193.246	2532.77
193.322	2528.44
193.397	2527.82
193.473	2512.48
193.548	2491.81
193.624	2499.34
193.699	2500.15
193.775	2518.34
193.85	2519.82
193.925	2528.2
194.001	2527.72
194.076	2519.72
194.152	2509.1
194.227	2499.39
194.302	2488.63
194.378	2493.44
194.453	2491.49
194.529	2507.92
194.604	2493.06
194.679	2481.92
194.755	2463.69
194.83	2473.07
194.905	2474.55
194.981	2483.55
195.056	2474.74
195.131	2482.03
195.207	2480.26
195.282	2469.46
195.357	2445.12
195.433	2463.16
195.508	2452.21
195.583	2459.35
195.659	2476.36
195.734	2487.12
195.809	2486.74
195.884	2499.45
195.96	2502.16
196.035	2519.45
196.11	2512.3
196.185	2525.63
196.261	2532.82
196.336	2565.49
196.411	2552.67
196.486	2553.63
196.561	2547.06
196.637	2557.62
196.712	2575.59
196.787	2580.25
196.862	2598.35
196.937	2612.35
197.013	2619.5
197.088	2633.69
197.163	2658.89
197.238	2678.35
197.313	2674.96
197.388	2691.59
197.464	2723.33
197.539	2733.47
197.614	2726.85
197.689	2740.86
197.764	2760.17
197.839	2780.51
197.914	2774.36
197.989	2798.09
198.065	2815.67
198.14	2868.7
198.215	2900.49
198.29	2913.79
198.365	2927.14
198.44	2937.24
198.515	2967.56
198.59	2983.1
198.665	3007.66
198.74	3015.24
198.815	3014.91
198.89	3042.13
198.965	3075.9
199.04	3069.6
199.115	3090.43
199.19	3136.87
199.265	3143.93
199.34	3154.8
199.415	3190.59
199.49	3216.39
199.565	3226.16
199.64	3249.25
199.715	3248.1
199.79	3252.4
199.865	3258.93
199.94	3258.27
200.015	3295.82
200.09	3302.45
200.165	3308.56
200.24	3320.39
200.315	3367.48
200.39	3385.85
200.464	3393.1
200.539	3393.44
200.614	3410.9
200.689	3438.25
200.764	3449.04
200.839	3464.54
200.914	3468.36
200.989	3459.34
201.063	3474.61
201.138	3456.35
201.213	3461.36
201.288	3441.65
201.363	3448.14
201.438	3448.85
201.512	3464.12
201.587	3445.6
201.662	3450.13
201.737	3463.02
201.812	3469.32
201.886	3430.01
201.961	3441.99
202.036	3426.35
202.111	3424.53
202.186	3395.68
202.26	3375.44
202.335	3351
202.41	3345.94
202.485	3330.3
202.559	3312.16
202.634	3283.87
202.709	3297.94
202.784	3280.04
202.858	3279.56
202.933	3263.58
203.008	3261.96
203.082	3244.07
203.157	3248.08
203.232	3206.69
203.306	3192.94
203.381	3160.6
203.456	3146.9
203.53	3128.47
203.605	3121.32
203.68	3103.29
203.754	3110.53
203.829	3104.14
203.904	3097.03
203.978	3098.8
204.053	3120.65
204.127	3123.08
204.202	3140.59
204.277	3138.39
204.351	3150.08
204.426	3162.39
204.5	3177.9
204.575	3162.92
204.65	3203.3
204.724	3223.4
204.799	3263.26
204.873	3292.01
204.948	3332.14
205.022	3353.32
205.097	3379.4
205.171	3433
205.246	3484.67
205.32	3523.66
205.395	3573
205.469	3612.18
205.544	3669.85
205.618	3701.82
205.693	3774.3
205.767	3819.16
205.842	3903.52
205.916	3955.79
205.991	4016.01
206.065	4090.46
206.14	4180.24
206.214	4247.18
206.289	4313.06
206.363	4406.67
206.438	4487.56
206.512	4576.59
206.586	4687.38
206.661	4792.22
206.735	4857.84
206.81	4951.79
206.884	5067.39
206.958	5152.21
207.033	5272.54
207.107	5387.23
207.181	5526.55
207.256	5621.05
207.33	5748.88
207.405	5877.25
207.479	6022.45
207.553	6145.25
207.628	6241.1
207.702	6376.05
207.776	6491.55
207.851	6618.11
207.925	6757.89
207.999	6882.53
208.073	7000.93
208.148	7127.69
208.222	7238.62
208.296	7407.36
208.371	7558.77
208.445	7702
208.519	7864.94
208.593	8011.57
208.668	8134.58
208.742	8274.89
208.816	8411.93
208.89	8571.75
208.965	8708.7
209.039	8848.01
209.113	9009.83
209.187	9176.3
209.261	9309.6
209.336	9470.94
209.41	9632.83
209.484	9765.27
209.558	9930.96
209.632	10092.39
209.707	10244.22
209.781	10416.92
209.855	10574.51
209.929	10729.62
210.003	10870.32
210.077	11008.9
210.151	11196.55
210.226	11379.15
210.3	11548.8
210.374	11713.85
210.448	11849.77
210.522	11994.85
210.596	12136.74
210.67	12280.14
210.744	12466.38
210.818	12644.1
210.892	12800.61
210.966	12924.69
211.041	13081.59
211.115	13204.08
211.189	13356.12
211.263	13513.17
211.337	13645.97
211.411	13782.06
211.485	13902.43
211.559	14044.87
211.633	14178.02
211.707	14271.53
211.781	14406.75
211.855	14482.62
211.929	14602.8
212.003	14704.36
212.077	14828.39
212.151	14970.49
212.225	15098.23
212.299	15201.04
212.373	15297.35
212.447	15403.59
212.52	15556
212.594	15673.42
212.668	15800.23
212.742	15907.72
212.816	16006.38
212.89	16100.42
212.964	16203.99
213.038	16314.13
213.112	16437.17
213.186	16559.93
213.26	16644.47
213.333	16692.14
213.407	16805.54
213.481	16902.47
213.555	17017.03
213.629	17109.03
213.703	17192.84
213.777	17296.07
213.85	17379.83
213.924	17513.71
213.998	17605.9
214.072	17698.33
214.146	17778.14
214.219	17873.51
214.293	17947.82
214.367	18032.93
214.441	18135.04
214.515	18222.13
214.588	18284.53
214.662	18325.4
214.736	18385.97
214.81	18481.1
214.883	18576.86
214.957	18646.2
215.031	18717.29
215.105	18763.69
215.178	18824.46
215.252	18878.58
215.326	18917.37
215.4	18969.56
215.473	18986.52
215.547	19044.4
215.621	19088.01
215.694	19167.28
215.768	19206.9
215.842	19262.8
215.915	19318.84
215.989	19356.24
216.063	19408.33
216.136	19463.6
216.21	19529.72
216.284	19598.05
216.357	19647.35
216.431	19700.6
216.504	19768.26
216.578	19853.51
216.652	19920.69
216.725	19978.38
216.799	20048.35
216.873	20112.73
216.946	20166.8
217.02	20220.01
217.093	20263.38
217.167	20293.89
217.24	20327.38
217.314	20371.48
217.387	20413.79
217.461	20450.7
217.535	20512.83
217.608	20544.39
217.682	20600.92
217.755	20661.21
217.829	20698.81
217.902	20746.23
217.976	20790.66
218.049	20822.18
218.123	20843.24
218.196	20895.49
218.27	20936.45
218.343	20977.76
218.417	21022.73
218.49	21067.26
218.563	21118.49
218.637	21169.05
218.71	21235.47
218.784	21285.84
218.857	21338.23
218.931	21391.1
219.004	21436.55
219.077	21483.69
219.151	21534.16
219.224	21570.64
219.298	21597.3
219.371	21650.42
219.444	21684.93
219.518	21725.61
219.591	21775.59
219.665	21855.76
219.738	21899.91
219.811	21926.62
219.885	21964.79
219.958	22008.76
220.031	22044.14
220.105	22086.12
220.178	22125.8
220.251	22160.03
220.325	22188.66
220.398	22227.42
220.471	22271.62
220.544	22328.99
220.618	22354.16
220.691	22396.82
220.764	22446.52
220.838	22503.89
220.911	22521.25
220.984	22578.43
221.057	22621.62
221.131	22651.85
221.204	22644.67
221.277	22693.26
221.35	22762.16
221.424	22788.19
221.497	22805.6
221.57	22832.65
221.643	22868.61
221.716	22907.09
221.79	22928.59
221.863	22955.93
221.936	22979.51
222.009	22995.9
222.082	23007.91
222.155	23029.02
222.229	23059.16
222.302	23072.9
222.375	23085.83
222.448	23124.45
222.521	23139.44
222.594	23147.88
222.667	23158.59
222.74	23190.31
222.814	23199.09
222.887	23205.21
222.96	23234.82
223.033	23263.99
223.106	23289.26
223.179	23311.11
223.252	23327.7
223.325	23338.4
223.398	23356.29
223.471	23372.06
223.544	23385.51
223.617	23401.71
223.69	23415.89
223.763	23414.01
223.837	23427.85
223.91	23451.77
223.983	23439.86
224.056	23427.61
224.129	23456.35
224.202	23470
224.275	23468.69
224.348	23469.8
224.42	23460.93
224.493	23444.82
224.566	23452.88
224.639	23461.22
224.712	23449.74
224.785	23442.8
224.858	23446.7
224.931	23439.95
225.004	23437.69
225.077	23446.27
225.15	23423.22
225.223	23427.22
225.296	23457.85
225.369	23454.71
225.442	23420.23
225.514	23420.62
225.587	23431.32
225.66	23419.75
225.733	23428.53
225.806	23428.62
225.879	23422.6
225.952	23418.45
226.025	23436.15
226.097	23435.08
226.17	23427.32
226.243	23403.11
226.316	23405.82
226.389	23408.71
226.461	23414.74
226.534	23405.72
226.607	23399.6
226.68	23417.2
226.753	23414.74
226.825	23383.15
226.898	23381.36
226.971	23390.19
227.044	23398.14
227.117	23392.07
227.189	23385.85
227.262	23386.28
227.335	23385.94
227.407	23375.14
227.48	23361.93
227.553	23347.95
227.626	23343.75
227.698	23335.55
227.771	23328.42
227.844	23299.24
227.916	23282.37
227.989	23243.6
228.062	23231.54
228.134	23241.29
228.207	23221.23
228.28	23192.01
228.352	23172.57
228.425	23154.68
228.498	23161
228.57	23128.45
228.643	23135.35
228.716	23130.62
228.788	23105.89
228.861	23085.78
228.934	23083.95
229.006	23074.02
229.079	23055.69
229.151	23027.58
229.224	22992.58
229.296	22983.75
229.369	23002.61
229.442	23014.66
229.514	22997.93
229.587	22998.08
229.659	22960.13
229.732	22955.26
229.804	22956.71
229.877	22970.26
229.949	22975.66
230.022	22980.72
230.094	22972.76
230.167	22946.15
230.239	22906.61
230.312	22890.61
230.384	22901.55
230.457	22891.28
230.529	22886.85
230.602	22880.72
230.674	22871.66
230.747	22884.48
230.819	22883.66
230.892	22826.82
230.964	22795.62
231.037	22798.27
231.109	22777.3
231.181	22784.48
231.254	22753.58
231.326	22739.12
231.399	22714.91
231.471	22691.48
231.544	22630.97
231.616	22626.54
231.688	22614.29
231.761	22599.63
231.833	22577.07
231.905	22532.67
231.978	22514.78
232.05	22495.11
232.122	22471.83
232.195	22438.56
232.267	22422.65
232.339	22403.13
232.412	22409.49
232.484	22382.93
232.556	22348.27
232.629	22353.48
232.701	22326.57
232.773	22307.82
232.846	22276.63
232.918	22251.32
232.99	22222.11
233.062	22214.83
233.135	22188.32
233.207	22152.16
233.279	22131.67
233.351	22115.96
233.424	22087.04
233.496	22042.59
233.568	22036.13
233.64	21993.67
233.713	21977.95
233.785	21946.81
233.857	21924.59
233.929	21883.13
234.001	21879.33
234.074	21866.26
234.146	21813.24
234.218	21775.54
234.29	21754.05
234.362	21724.21
234.434	21680.54
234.507	21646.56
234.579	21600.86
234.651	21572.57
234.723	21547.36
234.795	21527.02
234.867	21497.33
234.939	21479.59
235.012	21456.99
235.084	21425.65
235.156	21418.96
235.228	21379.1
235.3	21352.68
235.372	21326.41
235.444	21304.44
235.516	21242.21
235.588	21222.45
235.66	21195.12
235.732	21160.37
235.804	21190.5
235.876	21180.38
235.948	21177.24
236.02	21141.39
236.092	21113.34
236.164	21083.07
236.236	21047.65
236.308	21013.28
236.38	20982.05
236.452	20940.65
236.524	20916.6
236.596	20900.84
236.668	20871.25
236.74	20836.6
236.812	20807.05
236.884	20770.62
236.956	20740.21
237.028	20699.15
237.1	20644.35
237.172	20630.38
237.244	20615.97
237.316	20532.39
237.388	20482.37
237.46	20428.34
237.532	20414.75
237.604	20360.73
237.675	20335.43
237.747	20305.74
237.819	20271.38
237.891	20234.9
237.963	20198.18
238.035	20156.83
238.107	20072.3
238.178	20050.08
238.25	20019.72
238.322	20010.57
238.394	19967.63
238.466	19921.08
238.538	19911.58
238.609	19897.13
238.681	19841.95
238.753	19799.39
238.825	19775.06
238.897	19750.34
238.968	19738.24
239.04	19681.47
239.112	19689.28
239.184	19643.88
239.255	19614.97
239.327	19579.45
239.399	19552.8
239.471	19525.91
239.542	19500.81
239.614	19491.36
239.686	19424.04
239.758	19399.22
239.829	19348.28
239.901	19321.01
239.973	19297.06
240.044	19249.83
240.116	19211.91
240.188	19172.54
240.259	19127.62
240.331	19074.28
240.403	19039.53
240.474	18979.58
240.546	18942.53
240.618	18877.57
240.689	18839.54
240.761	18802.82
240.833	18778.73
240.904	18735.69
240.976	18693.87
241.048	18656.23
241.119	18632.13
241.191	18606.64
241.262	18585.34
241.334	18546.89
241.405	18513.44
241.477	18479.66
241.549	18441.16
241.62	18409.26
241.692	18374.27
241.763	18360.68
241.835	18333.6
241.906	18293.84
241.978	18246.71
242.049	18235.43
242.121	18224.88
242.192	18205.02
242.264	18153.22
242.335	18098.96
242.407	18077.85
242.478	18038.86
242.55	18016.65
242.621	17962.29
242.693	17916.26
242.764	17882.96
242.836	17838.44
242.907	17804.85
242.979	17765.95
243.05	17739.06
243.122	17707.31
243.193	17678.44
243.264	17619.6
243.336	17580.37
243.407	17549.81
243.479	17544.51
243.55	17507.12
243.622	17479.74
243.693	17438.25
243.764	17422.92
243.836	17380.61
243.907	17332.22
243.978	17300.46
244.05	17261.96
244.121	17220.46
244.192	17198.53
244.264	17135.55
244.335	17096.85
244.407	17046.48
244.478	17022.87
244.549	16981.13
244.62	16927.59
244.692	16894.72
244.763	16870.67
244.834	16830.14
244.906	16795
244.977	16757.41
245.048	16736.74
245.119	16685.02
245.191	16638.03
245.262	16575.76
245.333	16563.33
245.405	16532.48
245.476	16506.12
245.547	16476.43
245.618	16450.45
245.689	16417.77
245.761	16398.45
245.832	16365.67
245.903	16339.89
245.974	16305.14
246.045	16272.02
246.117	16260.26
246.188	16211
246.259	16167.14
246.33	16137.98
246.401	16100
246.473	16046.74
246.544	16001.49
246.615	15977.87
246.686	15948.47
246.757	15939.17
246.828	15887.11
246.899	15873.42
246.97	15820.83
247.042	15780.93
247.113	15755.62
247.184	15749.6
247.255	15706.84
247.326	15679.95
247.397	15647.6
247.468	15607.21
247.539	15584.85
247.61	15539.83
247.681	15519.87
247.752	15502.23
247.823	15458.95
247.894	15421.25
247.965	15383.99
248.037	15349.33
248.108	15304.27
248.179	15277.85
248.25	15245.7
248.321	15233.26
248.392	15185.54
248.463	15182.27
248.534	15147.32
248.605	15123.46
248.675	15085.38
248.746	15069.33
248.817	15046.43
248.888	15027.73
248.959	14985.75
249.03	14959.62
249.101	14925.68
249.172	14889.92
249.243	14834.53
249.314	14827.54
249.385	14806.76
249.456	14788.06
249.527	14756.44
249.598	14732.14
249.669	14695.46
249.739	14669.72
249.81	14645.37
249.881	14607.15
249.952	14577.21
250.023	14543.23
250.094	14496.71
250.165	14453.33
250.235	14417.13
250.306	14391.53
250.377	14348.43
250.448	14331.95
250.519	14282.1
250.59	14276.51
250.66	14246.09
250.731	14240.69
250.802	14211.63
250.873	14194.27
250.944	14171.37
251.014	14143.42
251.085	14145.1
251.156	14130.79
251.227	14121.53
251.297	14108.22
251.368	14096.56
251.439	14082.82
251.51	14071.4
251.58	14041.84
251.651	14012.1
251.722	14000.48
251.792	13947.31
251.863	13924.41
251.934	13908.07
252.005	13915.54
252.075	13887.2
252.146	13875.05
252.217	13863
252.287	13845.11
252.358	13814.12
252.429	13807.85
252.499	13775.94
252.57	13755.6
252.641	13743.59
252.711	13713.03
252.782	13663.18
252.852	13660.2
252.923	13632.77
252.994	13613.24
253.064	13601.09
253.135	13573.38
253.205	13541.22
253.276	13545.03
253.347	13534.95
253.417	13508.3
253.488	13481.83
253.558	13455.22
253.629	13432.61
253.699	13413.52
253.77	13401.57
253.841	13377.08
253.911	13358.86
253.982	13339.04
254.052	13324.05
254.123	13297.25
254.193	13272.04
254.264	13296.77
254.334	13263.99
254.405	13228.99
254.475	13193.8
254.546	13166.32
254.616	13152.53
254.687	13134.5
254.757	13111.85
254.827	13091.02
254.898	13072.65
254.968	13046.29
255.039	13017.12
255.109	13005.74
255.18	12968.48
255.25	12916.18
255.321	12896.8
255.391	12857.66
255.461	12863.78
255.532	12813.98
255.602	12796.48
255.673	12751.22
255.743	12713.57
255.813	12665.07
255.884	12651.48
255.954	12638.42
256.024	12641.84
256.095	12626.61
256.165	12589.25
256.235	12573.58
256.306	12543.12
256.376	12532.66
256.446	12522.49
256.517	12507.69
256.587	12498.82
256.657	12479.63
256.728	12463.68
256.798	12452.44
256.868	12434.37
256.938	12395.8
257.009	12388.62
257.079	12365.1
257.149	12380.09
257.219	12343.89
257.29	12328.46
257.36	12291.3
257.43	12285.56
257.5	12236.59
257.571	12212.63
257.641	12207.62
257.711	12174.02
257.781	12160.91
257.852	12149.78
257.922	12108.71
257.992	12091.55
258.062	12074.19
258.132	12068.94
258.202	12049.52
258.273	12030.96
258.343	12036.07
258.413	12011.87
258.483	11986.42
258.553	11957.6
258.623	11930.65
258.693	11911.32
258.764	11912.19
258.834	11917.01
258.904	11895.7
258.974	11875.08
259.044	11852.47
259.114	11847.6
259.184	11839.55
259.254	11821.77
259.324	11780.65
259.394	11772.65
259.464	11774.82
259.535	11747.49
259.605	11726.38
259.675	11697.46
259.745	11685.08
259.815	11640.39
259.885	11622.03
259.955	11636.15
260.025	11610.8
260.095	11588.34
260.165	11583.96
260.235	11588.05
260.305	11554.94
260.375	11528.63
260.445	11535.66
260.515	11545.79
260.585	11533.98
260.655	11514.41
260.725	11509.97
260.795	11503.81
260.865	11504.05
260.934	11472.86
261.004	11463.22
261.074	11446.02
261.144	11456.43
261.214	11447.61
261.284	11437.25
261.354	11434.11
261.424	11398.06
261.494	11404.18
261.564	11390.3
261.634	11381.34
261.703	11331.98
261.773	11326.49
261.843	11310.88
261.913	11291.55
261.983	11251.69
262.053	11239.07
262.123	11219.07
262.192	11179.02
262.262	11175.12
262.332	11147.02
262.402	11137.67
262.472	11121.53
262.541	11078.73
262.611	11069.39
262.681	11039.84
262.751	11032.71
262.821	11006.59
262.89	10980.28
262.96	10975.85
263.03	10982.45
263.1	10973.1
263.169	10964.23
263.239	10954.02
263.309	10962.59
263.379	10959.61
263.448	10943.71
263.518	10930.5
263.588	10920.57
263.657	10935.7
263.727	10928.23
263.797	10913.87
263.867	10899.85
263.936	10868.1
264.006	10871.76
264.076	10851.04
264.145	10836.24
264.215	10805.94
264.285	10806.76
264.354	10772.64
264.424	10745.32
264.494	10711.44
264.563	10682.29
264.633	10692.12
264.702	10676.56
264.772	10638.49
264.842	10611.22
264.911	10603.75
264.981	10571.95
265.05	10555.8
265.12	10528.58
265.19	10518.17
265.259	10513.06
265.329	10503.81
265.398	10499.28
265.468	10513.11
265.537	10496.35
265.607	10492.35
265.676	10496.3
265.746	10486.66
265.815	10491.72
265.885	10471.97
265.955	10449.52
266.024	10435.25
266.094	10397.1
266.163	10401.62
266.232	10407.45
266.302	10390.45
266.371	10379.95
266.441	10374.6
266.51	10371.27
266.58	10359.66
266.649	10325.17
266.719	10327.58
266.788	10315.58
266.858	10319.19
266.927	10274.1
266.996	10263.88
267.066	10248.95
267.135	10221.11
267.205	10217.01
267.274	10202.03
267.343	10208.68
267.413	10197.12
267.482	10202.46
267.552	10209.06
267.621	10178.71
267.69	10147.06
267.76	10145.71
267.829	10134.78
267.898	10117.82
267.968	10088.97
268.037	10088.24
268.106	10096.24
268.176	10059.34
268.245	10046.52
268.314	10025.86
268.384	10033.27
268.453	10020.46
268.522	10015.16
268.592	10017.28
268.661	9986.36
268.73	9986.89
268.799	9959.43
268.869	9970.7
268.938	9934.09
269.007	9909.52
269.076	9898.2
269.146	9896.86
269.215	9885.44
269.284	9891.17
269.353	9881.68
269.422	9869.79
269.492	9845.61
269.561	9801.97
269.63	9802.07
269.699	9788.53
269.768	9776.68
269.838	9764.59
269.907	9764.16
269.976	9739.16
270.045	9701.7
270.114	9704.49
270.183	9683.25
270.253	9679.83
270.322	9644.04
270.391	9634.89
270.46	9642.36
270.529	9644.62
270.598	9643.03
270.667	9630.99
270.736	9608.74
270.806	9599.54
270.875	9609.08
270.944	9602.29
271.013	9626.03
271.082	9614.9
271.151	9611.15
271.22	9583.51
271.289	9573.15
271.358	9562.46
271.427	9557.02
271.496	9554.56
271.565	9535.59
271.634	9528.41
271.703	9553.12
271.772	9561.21
271.841	9549.8
271.91	9518.59
271.979	9505.54
272.048	9480.11
272.117	9477.8
272.186	9460.8
272.255	9455.17
272.324	9451.51
272.393	9439.57
272.462	9421.84
272.531	9417.56
272.6	9402
272.669	9406.67
272.738	9395.84
272.807	9385.05
272.876	9363.48
272.945	9394.4
273.013	9401.48
273.082	9406.97
273.151	9359.1
273.22	9353.99
273.289	9347.4
273.358	9365.07
273.427	9346.63
273.496	9345.95
273.564	9343.06
273.633	9345.08
273.702	9328.47
273.771	9314.89
273.84	9311.67
273.909	9307.29
273.977	9302.66
274.046	9287.69
274.115	9293.08
274.184	9272.91
274.253	9261.21
274.322	9271.95
274.39	9237.8
274.459	9218.93
274.528	9188.55
274.597	9187.83
274.665	9182.91
274.734	9186.72
274.803	9175.16
274.872	9177.09
274.94	9160.72
275.009	9219.2
275.078	9205.91
275.147	9203.74
275.215	9198.16
275.284	9209.9
275.353	9201.33
275.421	9173.65
275.49	9196.47
275.559	9184
275.627	9182.51
275.696	9181.69
275.765	9177.98
275.833	9170.48
275.902	9169.61
275.971	9181.55
276.039	9191.75
276.108	9191.32
276.177	9196.62
276.245	9178.56
276.314	9171.53
276.383	9183.33
276.451	9115.08
276.52	9116.91
276.588	9127.69
276.657	9138.04
276.725	9122.35
276.794	9121
276.863	9131.88
276.931	9103.71
277	9114.3
277.068	9124.6
277.137	9140.11
277.205	9137.12
277.274	9152.96
277.342	9163.07
277.411	9138.72
277.48	9124.51
277.548	9116.47
277.617	9115.03
277.685	9113.39
277.754	9119.51
277.822	9108.67
277.89	9127.5
277.959	9124.23
278.027	9102.23
278.096	9080.75
278.164	9107.96
278.233	9096.12
278.301	9086.63
278.37	9096.41
278.438	9081.1
278.507	9080.13
278.575	9052.69
278.643	9052.4
278.712	9035.55
278.78	9017.02
278.849	9024.43
278.917	9029.68
278.985	9023.95
279.054	9025.05
279.122	9032.95
279.191	9028.57
279.259	9025.2
279.327	8998.04
279.396	9009.84
279.464	9015.61
279.532	9029.82
279.601	9029.09
279.669	9028.95
279.737	9045.51
279.806	9044.35
279.874	9055.14
279.942	9052.54
280.011	9045.7
280.079	9052.54
280.147	9069.25
280.215	9079.26
280.284	9084.65
280.352	9077.24
280.42	9083.59
280.488	9071.89
280.557	9066.16
280.625	9067.27
280.693	9071.02
280.761	9071.22
280.83	9053.02
280.898	9064
280.966	9040.46
281.034	9001.41
281.102	8983.02
281.171	8972.96
281.239	8980.13
281.307	8968.92
281.375	8964.54
281.443	8997.32
281.512	8990.44
281.58	8998.09
281.648	8981.29
281.716	8978.84
281.784	8978.31
281.852	8968.39
281.92	8968.39
281.989	8981.63
282.057	8961.89
282.125	9003.31
282.193	9000.47
282.261	9003.26
282.329	8996.18
282.397	9002.87
282.465	9011.01
282.533	9029.39
282.601	9013.94
282.67	8988.23
282.738	8977.93
282.806	8986.74
282.874	8970.32
282.942	8977.98
283.01	8961.75
283.078	8965.84
283.146	8960.45
283.214	8968.64
283.282	8978.99
283.35	8988.91
283.418	8978.84
283.486	8988.76
283.554	8944.89
283.622	8951.92
283.69	8946.87
283.758	8938.44
283.826	8942.05
283.894	8944.7
283.962	8963.43
284.03	8990.05
284.098	8992.94
284.165	8991.54
284.233	8991.59
284.301	8980.37
284.369	8966.94
284.437	8961.41
284.505	8954.76
284.573	8975.94
284.641	8966.89
284.709	8973.39
284.777	8951.78
284.845	8961.79
284.912	8964.01
284.98	8972.48
285.048	8957.07
285.116	8965.74
285.184	8981.63
285.252	8985.72
285.319	8970.6
285.387	8957.07
285.455	8929.3
285.523	8943.74
285.591	8937.19
285.659	8938.25
285.726	8952.98
285.794	8938.21
285.862	8944.61
285.93	8946.68
285.997	8939.65
286.065	8930.75
286.133	8915.24
286.201	8915.34
286.269	8901.43
286.336	8897.29
286.404	8881.59
286.472	8896.95
286.539	8868.02
286.607	8846.41
286.675	8844.77
286.743	8854.21
286.81	8851.9
286.878	8874.71
286.946	8857.05
287.013	8858.63
287.081	8850.98
287.149	8835.33
287.216	8853.38
287.284	8844
287.352	8838.03
287.419	8834.23
287.487	8846.84
287.555	8855.6
287.622	8852.52
287.69	8853.58
287.758	8866
287.825	8869.18
287.893	8856.27
287.96	8868.64
288.028	8881.45
288.096	8881.2
288.163	8890.21
288.231	8877.88
288.298	8871.82
288.366	8891.12
288.433	8887.9
288.501	8884.48
288.569	8890.98
288.636	8888.67
288.704	8896.66
288.771	8910.81
288.839	8898.92
288.906	8897.62
288.974	8905.08
289.041	8903.3
289.109	8894.3
289.176	8898.78
289.244	8901.86
289.311	8916.01
289.379	8928.33
289.446	8931.42
289.514	8933
289.581	8925.11
289.649	8924.96
289.716	8928.14
289.783	8918.37
289.851	8942.44
289.918	8942.39
289.986	8946.72
290.053	8952.21
290.121	8951.34
290.188	8955.96
290.255	8990.43
290.323	8981
290.39	8972.43
290.458	8985.62
290.525	9002.42
290.592	8998.95
290.66	9000.59
290.727	8991.35
290.794	9002.8
290.862	9003.67
290.929	9008
290.996	9009.11
291.064	9023.31
291.131	9034.19
291.198	9046.85
291.266	9045.7
291.333	9049.21
291.4	9053.59
291.468	9077.09
291.535	9081.28
291.602	9081.33
291.669	9069
291.737	9081.71
291.804	9081.95
291.871	9092.78
291.938	9101.3
292.006	9131.16
292.073	9144.69
292.14	9160.43
292.207	9155.52
292.275	9152.34
292.342	9163.46
292.409	9193.99
292.476	9223.17
292.543	9215.27
292.611	9217.59
292.678	9233.23
292.745	9255.04
292.812	9267.71
292.879	9258.75
292.946	9263.42
293.014	9281.33
293.081	9287.01
293.148	9293.95
293.215	9309.79
293.282	9308.73
293.349	9310.65
293.416	9286.24
293.484	9305.69
293.551	9312.53
293.618	9328.03
293.685	9363.81
293.752	9350.86
293.819	9348.21
293.886	9322.84
293.953	9327.27
294.02	9338.73
294.087	9344.65
294.154	9338.68
294.221	9356.69
294.288	9353.27
294.356	9368.25
294.423	9369.74
294.49	9370.56
294.557	9386.45
294.624	9374.31
294.691	9392.23
294.758	9397.23
294.825	9410.67
294.892	9396.13
294.959	9394.97
295.026	9406
295.093	9388.71
295.16	9393.14
295.226	9390.49
295.293	9427.67
295.36	9436.33
295.427	9452.71
295.494	9464.41
295.561	9475.01
295.628	9497.65
295.695	9512.38
295.762	9514.11
295.829	9531.36
295.896	9544.74
295.963	9555.34
296.03	9571.37
296.096	9578.02
296.163	9592.42
296.23	9605.76
296.297	9620.64
296.364	9620.11
296.431	9624.01
296.498	9621.12
296.564	9648.72
296.631	9644.96
296.698	9626.47
296.765	9647.32
296.832	9631.81
296.899	9614.18
296.965	9633.35
297.032	9604.6
297.099	9622.18
297.166	9630.07
297.233	9617.74
297.299	9612.21
297.366	9603.3
297.433	9601.8
297.5	9610.18
297.566	9609.22
297.633	9606.67
297.7	9606.14
297.767	9607.68
297.833	9609.08
297.9	9614.13
297.967	9594.34
298.033	9618.37
298.1	9655.17
298.167	9647.66
298.234	9655.22
298.3	9670.44
298.367	9663.89
298.434	9675.01
298.5	9669.86
298.567	9664.66
298.634	9666.49
298.7	9691.1
298.767	9697.99
298.834	9720.48
298.9	9719.51
298.967	9707.52
299.033	9720.33
299.1	9738.11
299.167	9755.97
299.233	9755.97
299.3	9777.5
299.366	9796.57
299.433	9818.83
299.5	9788.87
299.566	9792.58
299.633	9810.01
299.699	9820.22
299.766	9818.35
299.832	9826.78
299.899	9836.51
299.965	9851.87
300.032	9856.06
300.099	9852.98
300.165	9865.36
300.232	9859.24
300.298	9859.58
300.365	9880.62
300.431	9879.08
300.498	9873.54
300.564	9884.24
300.631	9899.99
300.697	9909.33
300.763	9910.78
300.83	9902.1
300.896	9917.66
300.963	9933.46
301.029	9933.22
301.096	9937.56
301.162	9948.39
301.229	9936.74
301.295	9923.68
301.361	9927.73
301.428	9924.31
301.494	9907.98
301.561	9908.42
301.627	9912.41
301.693	9917.18
301.76	9916.22
301.826	9907.64
301.892	9925.03
301.959	9931.2
302.025	9923.4
302.092	9917.62
302.158	9923.59
302.224	9919.16
302.291	9906.92
302.357	9897.67
302.423	9892.18
302.49	9883.9
302.556	9897.1
302.622	9899.7
302.688	9916.56
302.755	9933.42
302.821	9939.39
302.887	9952.49
302.954	9951.33
303.02	9959.38
303.086	9969.01
303.152	9968.77
303.219	9965.02
303.285	9962.41
303.351	9967.66
303.417	9972.58
303.483	9963.57
303.55	9960.49
303.616	9960.44
303.682	9957.12
303.748	9950.04
303.815	9967.76
303.881	9981.3
303.947	9964.54
304.013	9971.04
304.079	9957.36
304.145	9931.63
304.212	9931.73
304.278	9924.12
304.344	9916.61
304.41	9903.46
304.476	9891.22
304.542	9890.98
304.608	9898.74
304.674	9882.55
304.741	9876.72
304.807	9883.46
304.873	9894.21
304.939	9905.86
305.005	9888.23
305.071	9888.23
305.137	9886.55
305.203	9858.56
305.269	9853.89
305.335	9870.8
305.401	9866.94
305.467	9867.91
305.533	9871.86
305.599	9882.45
305.666	9895.31
305.732	9901.38
305.798	9920.65
305.864	9943.97
305.93	9949.27
305.996	9947.43
306.062	9944.3
306.128	9938.09
306.194	9923.25
306.259	9922.29
306.325	9919.45
306.391	9923.98
306.457	9938.71
306.523	9945.12
306.589	9976.29
306.655	9967.95
306.721	9944.3
306.787	9932.31
306.853	9947.24
306.919	9935.68
306.985	9932.6
307.051	9922.53
307.117	9912.51
307.183	9899.7
307.248	9871.47
307.314	9873.35
307.38	9883.56
307.446	9892.18
307.512	9886.36
307.578	9886.89
307.644	9880.86
307.709	9874.51
307.775	9878.17
307.841	9874.17
307.907	9874.27
307.973	9846.76
308.039	9847.29
308.104	9856.49
308.17	9857.11
308.236	9843.34
308.302	9846.56
308.368	9832.74
308.433	9837.27
308.499	9831.44
308.565	9821.13
308.631	9818.73
308.696	9789.3
308.762	9772.97
308.828	9769.98
308.894	9751.3
308.959	9733.14
309.025	9719.51
309.091	9718.74
309.156	9706.79
309.222	9702.02
309.288	9683.34
309.354	9661.67
309.419	9656.13
309.485	9641.44
309.551	9642.06
309.616	9625.16
309.682	9621.35
309.748	9615.72
309.813	9602.33
309.879	9595.64
309.945	9584.7
310.01	9577.24
310.076	9588.32
310.141	9587.3
310.207	9571.56
310.273	9571.41
310.338	9576.66
310.404	9563.99
310.469	9547.57
310.535	9541.99
310.601	9519.4
310.666	9536.98
310.732	9552.39
310.797	9543
310.863	9533.12
310.928	9528.45
310.994	9527.3
311.059	9527.54
311.125	9525.37
311.191	9543.67
311.256	9535.82
311.322	9537.08
311.387	9519.98
311.453	9793.35
311.518	9761.09
311.584	9760.18
311.649	9764.37
311.715	9748.72
311.78	9750.6
311.846	9740.92
311.911	9748.14
311.976	9756.66
312.042	9737.01
312.107	9717.7
312.173	9708.65
312.238	9700.95
312.304	9699.84
312.369	9699.07
312.434	9681.25
312.5	9670.42
312.565	9632.71
312.631	9638.73
312.696	9632.85
312.761	9637.48
312.827	9355.48
312.892	9401.62
312.958	9400.36
313.023	9402.29
313.088	9398.53
313.154	9378.31
313.219	9369.79
313.284	9354.72
313.35	9349.9
313.415	9335.75
313.48	9336.95
313.546	9338.44
313.611	9349.13
313.676	9340.85
313.741	9328.91
313.807	9344.46
313.872	9342.54
313.937	9351.01
314.003	9362.13
314.068	9363.15
314.133	9369.21
314.198	9355.87
314.264	9334.63
314.329	9322.45
314.394	9315.42
314.459	9319.32
314.525	9348.59
314.59	9346.43
314.655	9334.3
314.72	9340.99
314.785	9346.67
314.851	9338.82
314.916	9323.32
314.981	9309.21
315.046	9300.45
315.111	9287.21
315.176	9271.6
315.242	9276.13
315.307	9271.89
315.372	9247.05
315.437	9234.33
315.502	9225.96
315.567	9233.47
315.632	9210.45
315.698	9217.1
315.763	9207.8
315.828	9191.29
315.893	9181.8
315.958	9179.44
316.023	9174.44
316.088	9150.17
316.153	9126.63
316.218	9118.35
316.283	9099.34
316.348	9076.28
316.413	9073.73
316.479	9057.27
316.544	9018.28
316.609	8992.23
316.674	8958.87
316.739	8922.97
316.804	8891.87
316.869	8854.86
316.934	8816.73
316.999	8788.96
317.064	8731.97
317.129	8687.4
317.194	8658.38
317.259	8610.39
317.324	8557.41
317.389	8513.28
317.454	8475.65
317.518	8447.26
317.583	8424.49
317.648	8397.21
317.713	8367.71
317.778	8303.43
317.843	8271.24
317.908	8236.37
317.973	8201.87
318.038	8170.21
318.103	8137.21
318.168	8104.79
318.233	8075.69
318.297	8029.46
318.362	7991.51
318.427	7950.97
318.492	7930.67
318.557	7878.4
318.622	7851.9
318.687	7828.24
318.751	7788.28
318.816	7753.71
318.881	7718.27
318.946	7657.67
319.011	7618.77
319.075	7576.23
319.14	7543.2
319.205	7508.1
319.27	7471.38
319.335	7424.08
319.399	7385.38
319.464	7356.59
319.529	7304.11
319.594	7267.62
319.658	7232.01
319.723	7190.87
319.788	7165.69
319.853	7105.09
319.917	7082.94
319.982	7026.82
320.047	6989.87
320.112	6965.7
320.176	6916.51
320.241	6879.75
320.306	6853.48
320.37	6808.95
320.435	6776
320.5	6746.27
320.564	6706.12
320.629	6668.81
320.694	6636.2
320.758	6594.28
320.823	6546.02
320.888	6517.99
320.952	6467.62
321.017	6427.63
321.082	6388.99
321.146	6354.56
321.211	6326.24
321.275	6279.84
321.34	6240.96
321.405	6198.44
321.469	6152.37
321.534	6107.52
321.598	6056.66
321.663	6023.4
321.727	5995.47
321.792	5947.31
321.857	5903.98
321.921	5862.01
321.986	5816.6
322.05	5754.6
322.115	5715.9
322.179	5673.47
322.244	5618.39
322.308	5581.18
322.373	5531.67
322.437	5488.47
322.502	5460.95
322.566	5414.64
322.631	5382
322.695	5339.06
322.76	5294.79
322.824	5256.4
322.889	5214.44
322.953	5168.7
323.018	5103.06
323.082	5035.87
323.146	4985.16
323.211	4928.46
323.275	4880.38
323.34	4839.16
323.404	4805.99
323.468	4759.94
323.533	4716.95
323.597	4671.88
323.662	4617.08
323.726	4587.41
323.79	4541.47
323.855	4474.26
323.919	4424.12
323.983	4378.14
324.048	4305.95
324.112	4480.24
324.177	4345.44
324.241	4124.04
324.305	3906.03
324.37	3690.6
324.434	3483.93
324.498	3439.17
324.562	3389.79
324.627	3330.24
324.691	3271.66
324.755	3204.57
324.82	3126.32
324.884	3044.57
324.948	2970.55
325.012	2876.5
325.077	2743.36
