Data from 20250703_urea_0.1M_MAYP1162681_20-21-05-060.txt Node
Date: Thu Jul 03 20:21:05 BST 2025
User: adleo
Spectrometer: MAYP116268
Trigger mode: 0
Integration Time (sec): 1.000000E0
Scans to average: 1
Electric dark correction enabled: true
Nonlinearity correction enabled: true
Boxcar width: 10
XAxis mode: Wavelengths
Number of Pixels in Spectrum: 2068
>>>>>Begin Spectral Data<<<<<
179.565	1391.67
179.642	1457.64
179.718	1510.31
179.795	1556.67
179.871	1594.85
179.948	1612.4
180.024	1637.87
180.101	1664.12
180.177	1678.3
180.254	1704.75
180.33	1731.87
180.407	1797.8
180.483	1904.79
180.56	2012.62
180.636	2110.58
180.712	2092.74
180.789	2103.58
180.865	2114.43
180.942	2124.37
181.018	2136.78
181.095	2148.92
181.171	2159.1
181.248	2158.96
181.324	2174.09
181.4	2177.57
181.477	2189.7
181.553	2205.01
181.63	2227.24
181.706	2245.7
181.782	2256.74
181.859	2253.83
181.935	2257.93
182.011	2255.74
182.088	2274.58
182.164	2290.11
182.24	2305.57
182.317	2318.27
182.393	2317.08
182.469	2333.83
182.546	2347.59
182.622	2356.39
182.698	2348.83
182.775	2359.25
182.851	2375.53
182.927	2366.82
183.003	2366.01
183.08	2360.49
183.156	2375.29
183.232	2370.01
183.308	2355.54
183.385	2365.63
183.461	2387.48
183.537	2389.62
183.613	2401.56
183.69	2393.66
183.766	2385.23
183.842	2394.18
183.918	2401.71
183.995	2417.32
184.071	2422.75
184.147	2416.7
184.223	2401.28
184.299	2417.95
184.375	2406.33
184.452	2409.71
184.528	2464.05
184.604	2472.52
184.68	2484.37
184.756	2490.66
184.832	2496.51
184.908	2503.37
184.985	2504.22
185.061	2487.37
185.137	2498.94
185.213	2486.33
185.289	2485.47
185.365	2476.19
185.441	2473.71
185.517	2487.24
185.593	2480.58
185.669	2476.48
185.745	2488.34
185.822	2507.61
185.898	2496.8
185.974	2504.8
186.05	2499.65
186.126	2462.75
186.202	2459.37
186.278	2457.8
186.354	2444.27
186.43	2453.9
186.506	2451.18
186.582	2450.23
186.658	2457.04
186.734	2435.23
186.81	2443.04
186.886	2448.75
186.962	2463.84
187.038	2458.13
187.114	2452.17
187.19	2460.79
187.266	2447.89
187.341	2447.84
187.417	2440.56
187.493	2439.18
187.569	2442.61
187.645	2438.13
187.721	2427.27
187.797	2434.75
187.873	2436.27
187.949	2430.66
188.025	2418.8
188.101	2421.37
188.176	2425.41
188.252	2422.37
188.328	2431.31
188.404	2429.74
188.48	2422.89
188.556	2414.46
188.632	2414.32
188.707	2414.6
188.783	2412.46
188.859	2409.75
188.935	2400.32
189.011	2408.94
189.086	2404.75
189.162	2399.42
189.238	2395.13
189.314	2390.94
189.39	2383.95
189.465	2377.61
189.541	2397.85
189.617	2382.95
189.693	2378.67
189.768	2384.05
189.844	2410.58
189.92	2397.49
189.996	2407.87
190.071	2421.63
190.147	2420.35
190.223	2432.44
190.298	2423.3
190.374	2409.26
190.45	2422.44
190.526	2431.39
190.601	2422.35
190.677	2421.87
190.753	2451.36
190.828	2454.64
190.904	2470.93
190.98	2488.4
191.055	2499.69
191.131	2486.97
191.207	2508.54
191.282	2520.44
191.358	2506.58
191.433	2488.96
191.509	2506.52
191.585	2501.66
191.66	2502.18
191.736	2511.18
191.811	2501.71
191.887	2519.52
191.963	2543.61
192.038	2547.95
192.114	2545.33
192.189	2549.9
192.265	2549.42
192.34	2523.93
192.416	2523.12
192.491	2518.17
192.567	2521.41
192.642	2523.6
192.718	2523.98
192.793	2515.36
192.869	2507.22
192.944	2511.74
193.02	2521.56
193.095	2522.84
193.171	2525.6
193.246	2526.98
193.322	2524.13
193.397	2525.56
193.473	2509.03
193.548	2490.88
193.624	2497.69
193.699	2497.88
193.775	2516.46
193.85	2516.7
193.925	2527.56
194.001	2527.61
194.076	2522.37
194.152	2505.51
194.227	2498.84
194.302	2488.08
194.378	2488.04
194.453	2488.32
194.529	2501.85
194.604	2482.99
194.679	2473.99
194.755	2457.66
194.83	2470.43
194.905	2468.01
194.981	2475.82
195.056	2469.58
195.131	2475.91
195.207	2473.58
195.282	2462.72
195.357	2440.19
195.433	2457.67
195.508	2441.81
195.583	2453.14
195.659	2465.72
195.734	2478
195.809	2475.05
195.884	2487.38
195.96	2492.47
196.035	2507.38
196.11	2504.09
196.185	2518.71
196.261	2526.13
196.336	2559.42
196.411	2543.03
196.486	2548.98
196.561	2541.55
196.637	2549.46
196.712	2570.13
196.787	2573.75
196.862	2593.18
196.937	2605.23
197.013	2613.04
197.088	2626.33
197.163	2647.97
197.238	2665.79
197.313	2665.08
197.388	2681.61
197.464	2713.63
197.539	2722.68
197.614	2715.96
197.689	2727.3
197.764	2745.13
197.839	2768.81
197.914	2761.42
197.989	2786.92
198.065	2802.73
198.14	2858.96
198.215	2889.74
198.29	2899.14
198.365	2916.58
198.44	2927.83
198.515	2960.25
198.59	2975.84
198.665	3006.21
198.74	3016.61
198.815	3020.9
198.89	3050.36
198.965	3083.56
199.04	3079.6
199.115	3097.72
199.19	3145.92
199.265	3150.88
199.34	3160.51
199.415	3203.23
199.49	3227.4
199.565	3238.04
199.64	3265.89
199.715	3260.93
199.79	3272.57
199.865	3278.39
199.94	3274.62
200.015	3308.93
200.09	3313.56
200.165	3321.43
200.24	3328.01
200.315	3370.24
200.39	3389.28
200.464	3396.05
200.539	3397.06
200.614	3418.19
200.689	3444.82
200.764	3452.99
200.839	3473.4
200.914	3481.18
200.989	3465.99
201.063	3487.09
201.138	3466.58
201.213	3464.44
201.288	3446.06
201.363	3447.88
201.438	3452.5
201.512	3470.58
201.587	3454.16
201.662	3458.7
201.737	3469.05
201.812	3481.08
201.886	3445.97
201.961	3457.15
202.036	3438.35
202.111	3440.17
202.186	3409.21
202.26	3392.98
202.335	3372.6
202.41	3367.59
202.485	3352.18
202.559	3328.32
202.634	3299.5
202.709	3317.24
202.784	3300.2
202.858	3302.49
202.933	3286.37
203.008	3282.74
203.082	3267.95
203.157	3267.81
203.232	3227.28
203.306	3209.43
203.381	3179.7
203.456	3162.05
203.53	3139.61
203.605	3132.17
203.68	3113.41
203.754	3115.13
203.829	3109.02
203.904	3098.48
203.978	3100.01
204.053	3118.14
204.127	3124.43
204.202	3139.46
204.277	3137.84
204.351	3149.38
204.426	3162.7
204.5	3176.96
204.575	3165.56
204.65	3207.62
204.724	3231.78
204.799	3272.55
204.873	3306.83
204.948	3343.48
205.022	3367.82
205.097	3401.63
205.171	3459.92
205.246	3515.66
205.32	3562.66
205.395	3614.87
205.469	3653.53
205.544	3713.79
205.618	3752.34
205.693	3829.52
205.767	3879.7
205.842	3968.99
205.916	4032.03
205.991	4092.7
206.065	4175.32
206.14	4267.99
206.214	4338.78
206.289	4411.81
206.363	4511.52
206.438	4599.75
206.512	4695.15
206.586	4806.63
206.661	4911.87
206.735	4983.83
206.81	5083.22
206.884	5200.04
206.958	5286.95
207.033	5414.23
207.107	5537.53
207.181	5690.95
207.256	5792.58
207.33	5928.75
207.405	6061.29
207.479	6201.29
207.553	6335.84
207.628	6438.68
207.702	6576.26
207.776	6696.65
207.851	6827.71
207.925	6976.42
207.999	7110.04
208.073	7245.31
208.148	7387
208.222	7508.38
208.296	7679.67
208.371	7835.46
208.445	7995.66
208.519	8174.13
208.593	8335.8
208.668	8468.18
208.742	8608.49
208.816	8754.76
208.89	8914.66
208.965	9059.59
209.039	9222.95
209.113	9378.89
209.187	9552.52
209.261	9696.01
209.336	9864.47
209.41	10035.3
209.484	10179.96
209.558	10346.74
209.632	10513.08
209.707	10674.14
209.781	10849.42
209.855	11016.38
209.929	11183.56
210.003	11332.28
210.077	11476.57
210.151	11675.57
210.226	11863.63
210.3	12043.61
210.374	12214.76
210.448	12360.51
210.522	12511.87
210.596	12655.13
210.67	12809.03
210.744	13005.85
210.818	13181.45
210.892	13349.1
210.966	13493.24
211.041	13652.5
211.115	13786.95
211.189	13943.71
211.263	14100.28
211.337	14241.43
211.411	14396.45
211.485	14530.6
211.559	14677
211.633	14813.18
211.707	14906.36
211.781	15043.2
211.855	15131.6
211.929	15253.9
212.003	15371.37
212.077	15505.03
212.151	15643.99
212.225	15790.33
212.299	15895.74
212.373	16006.36
212.447	16123.19
212.52	16269.27
212.594	16394.11
212.668	16529.01
212.742	16635.77
212.816	16739
212.89	16844.79
212.964	16952.36
213.038	17065.71
213.112	17189.67
213.186	17317.82
213.26	17398.3
213.333	17455.22
213.407	17574.55
213.481	17683.08
213.555	17800.04
213.629	17894.89
213.703	17982.98
213.777	18087.41
213.85	18169.62
213.924	18318.53
213.998	18419.35
214.072	18511.82
214.146	18590.76
214.219	18683.96
214.293	18772.87
214.367	18881.49
214.441	18979.94
214.515	19058.01
214.588	19115.7
214.662	19178.63
214.736	19243.83
214.81	19346.43
214.883	19445.75
214.957	19514.28
215.031	19580.54
215.105	19627.67
215.178	19696.58
215.252	19770.12
215.326	19807.8
215.4	19862.16
215.473	19873.39
215.547	19922.3
215.621	19970.64
215.694	20046.74
215.768	20080.37
215.842	20126.44
215.915	20163.17
215.989	20212.32
216.063	20261.96
216.136	20325.05
216.21	20375.98
216.284	20443.65
216.357	20506.83
216.431	20559.07
216.504	20630.54
216.578	20711.27
216.652	20782.74
216.725	20829.73
216.799	20888.87
216.873	20951.91
216.946	21019.04
217.02	21073.65
217.093	21118.81
217.167	21156.3
217.24	21190.91
217.314	21241.61
217.387	21289.66
217.461	21328.27
217.535	21391.51
217.608	21433.92
217.682	21480.48
217.755	21541.36
217.829	21583.63
217.902	21616.84
217.976	21668.27
218.049	21693.24
218.123	21727.85
218.196	21774.9
218.27	21819.63
218.343	21845.99
218.417	21883.4
218.49	21915.6
218.563	21965.49
218.637	22015.62
218.71	22074.05
218.784	22126.84
218.857	22187.24
218.931	22243.45
219.004	22294.69
219.077	22339.72
219.151	22383.15
219.224	22428.37
219.298	22465.21
219.371	22518.43
219.444	22553.48
219.518	22591.85
219.591	22627.87
219.665	22694.26
219.738	22737.12
219.811	22767.64
219.885	22821.83
219.958	22867.1
220.031	22910.49
220.105	22956.01
220.178	22990.24
220.251	23019.27
220.325	23053.36
220.398	23090.44
220.471	23126.36
220.544	23164.84
220.618	23178.1
220.691	23213.78
220.764	23229.64
220.838	23261.37
220.911	23279.12
220.984	23327.19
221.057	23359.98
221.131	23402.32
221.204	23399.33
221.277	23447.17
221.35	23513.24
221.424	23534.98
221.497	23564.98
221.57	23584.56
221.643	23613.83
221.716	23646.48
221.79	23664.47
221.863	23677.39
221.936	23692.73
222.009	23706.04
222.082	23729.72
222.155	23752.1
222.229	23782.43
222.302	23825.11
222.375	23834.76
222.448	23862.2
222.521	23880.38
222.594	23893.69
222.667	23895.62
222.74	23911.15
222.814	23919.59
222.887	23920.37
222.96	23937.49
223.033	23964.16
223.106	23983.74
223.179	23990.45
223.252	24003.33
223.325	24018.71
223.398	24034.77
223.471	24042.44
223.544	24048.42
223.617	24058.6
223.69	24076.15
223.763	24080.16
223.837	24083.73
223.91	24108.37
223.983	24089.56
224.056	24083.53
224.129	24092.17
224.202	24113.97
224.275	24115.71
224.348	24106.93
224.42	24090.58
224.493	24079.68
224.566	24061.49
224.639	24067.86
224.712	24067.76
224.785	24067.81
224.858	24064.24
224.931	24062.7
225.004	24049.87
225.077	24055.32
225.15	24025.9
225.223	24020.3
225.296	24041.33
225.369	24011.43
225.442	23992.04
225.514	23993.68
225.587	23991.99
225.66	23982.15
225.733	23960.5
225.806	23962.38
225.879	23951.19
225.952	23936
226.025	23942.03
226.097	23956.83
226.17	23951.29
226.243	23922.4
226.316	23901.85
226.389	23892.93
226.461	23895.63
226.534	23908.99
226.607	23898.04
226.68	23916.75
226.753	23897.36
226.825	23856.17
226.898	23871.85
226.971	23870.01
227.044	23857.86
227.117	23854.44
227.189	23853.18
227.262	23862.63
227.335	23853.04
227.407	23843.54
227.48	23837.27
227.553	23833.41
227.626	23819.13
227.698	23803.89
227.771	23797.62
227.844	23774.91
227.916	23759.28
227.989	23715.59
228.062	23693.6
228.134	23700.93
228.207	23680.48
228.28	23666.59
228.352	23654.1
228.425	23638.86
228.498	23629.74
228.57	23606.69
228.643	23603.61
228.716	23574.72
228.788	23558.47
228.861	23542.31
228.934	23544
229.006	23526.78
229.079	23511.74
229.151	23480.87
229.224	23441.38
229.296	23428.55
229.369	23449.53
229.442	23454.26
229.514	23436.56
229.587	23423.54
229.659	23379.08
229.732	23371.41
229.804	23365.77
229.877	23370.11
229.949	23365.96
230.022	23377.59
230.094	23373.25
230.167	23352.75
230.239	23331.49
230.312	23319.29
230.384	23323
230.457	23309.21
230.529	23288.43
230.602	23257.08
230.674	23239.97
230.747	23249.03
230.819	23250.53
230.892	23189.14
230.964	23168.46
231.037	23168.74
231.109	23145.84
231.181	23138.85
231.254	23097.29
231.326	23068.31
231.399	23048.93
231.471	23023.23
231.544	22970.28
231.616	22958.32
231.688	22942.07
231.761	22916.09
231.833	22872.55
231.905	22828.04
231.978	22800.8
232.05	22782.43
232.122	22767.39
232.195	22734.94
232.267	22717.68
232.339	22689.52
232.412	22696.66
232.484	22666.48
232.556	22622.46
232.629	22632.97
232.701	22626.71
232.773	22609.93
232.846	22591.85
232.918	22562.54
232.99	22530.57
233.062	22510.37
233.135	22487.09
233.207	22437.33
233.279	22429.24
233.351	22418.53
233.424	22392.65
233.496	22349.55
233.568	22349.16
233.64	22309.78
233.713	22289.97
233.785	22255.21
233.857	22223.05
233.929	22163.28
234.001	22153.4
234.074	22149.06
234.146	22086.05
234.218	22047.2
234.29	22013.98
234.362	21974.75
234.434	21927.65
234.507	21887.26
234.579	21840.02
234.651	21804.11
234.723	21785.69
234.795	21753.25
234.867	21719.41
234.939	21703.51
235.012	21672.18
235.084	21654.15
235.156	21629.71
235.228	21588.4
235.3	21560.4
235.372	21525.84
235.444	21513.31
235.516	21452.38
235.588	21421.58
235.66	21390.93
235.732	21343.4
235.804	21382.26
235.876	21363.89
235.948	21347.26
236.02	21326.1
236.092	21292.42
236.164	21258.77
236.236	21226
236.308	21186.14
236.38	21159.25
236.452	21110.33
236.524	21087.29
236.596	21052.49
236.668	21028.05
236.74	21006.75
236.812	20971.13
236.884	20943.28
236.956	20909.01
237.028	20867.47
237.1	20820.48
237.172	20805.39
237.244	20796.33
237.316	20715.74
237.388	20669.77
237.46	20619.5
237.532	20593.19
237.604	20554.25
237.675	20537.96
237.747	20511.16
237.819	20470.34
237.891	20426.25
237.963	20386.83
238.035	20347.69
238.107	20265.38
238.178	20239.69
238.25	20197.14
238.322	20182.59
238.394	20130.88
238.466	20096.56
238.538	20073.19
238.609	20048.52
238.681	19994.98
238.753	19951.32
238.825	19917.15
238.897	19890.74
238.968	19883.46
239.04	19835.08
239.112	19838.64
239.184	19782.94
239.255	19737.2
239.327	19709.35
239.399	19680.87
239.471	19649.59
239.542	19622.27
239.614	19621.59
239.686	19562.13
239.758	19532.68
239.829	19485.55
239.901	19465.36
239.973	19430.13
240.044	19397.22
240.116	19361.46
240.188	19323.88
240.259	19283.83
240.331	19247.59
240.403	19210.39
240.474	19146.78
240.546	19109.48
240.618	19040.28
240.689	19000.76
240.761	18968.33
240.833	18948.28
240.904	18902.02
240.976	18869.35
241.048	18827.33
241.119	18789.93
241.191	18755.86
241.262	18739.48
241.334	18698.81
241.405	18661.12
241.477	18611.1
241.549	18570.33
241.62	18538.33
241.692	18508.07
241.763	18487.78
241.835	18449.57
241.906	18407.98
241.978	18366.15
242.049	18341.91
242.121	18321.57
242.192	18301.33
242.264	18250.93
242.335	18196.81
242.407	18175.03
242.478	18130.69
242.55	18098.35
242.621	18052.09
242.693	18012.72
242.764	17962.31
242.836	17921.2
242.907	17894.12
242.979	17865.74
243.05	17837.3
243.122	17804.15
243.193	17766.7
243.264	17692
243.336	17644.58
243.407	17624.58
243.479	17606.56
243.55	17570.18
243.622	17533.6
243.693	17488.83
243.764	17473.5
243.836	17422.13
243.907	17373.89
243.978	17342.61
244.05	17319.57
244.121	17273.21
244.192	17252.58
244.264	17211.14
244.335	17179.38
244.407	17115.09
244.478	17089.3
244.549	17044.39
244.62	16991.13
244.692	16950.55
244.763	16934.98
244.834	16895.08
244.906	16855.13
244.977	16816.43
245.048	16802.26
245.119	16757.96
245.191	16718.73
245.262	16662.68
245.333	16653.04
245.405	16626.39
245.476	16588.7
245.547	16546.92
245.618	16524.74
245.689	16497.71
245.761	16467.97
245.832	16425.85
245.903	16414.42
245.974	16383.1
246.045	16348.83
246.117	16342.46
246.188	16303.09
246.259	16257.92
246.33	16221.63
246.401	16178.73
246.473	16137.43
246.544	16082.58
246.615	16066.58
246.686	16025.03
246.757	16008.5
246.828	15962.85
246.899	15940.68
246.97	15894.55
247.042	15852.72
247.113	15826.06
247.184	15814.26
247.255	15770.3
247.326	15744.46
247.397	15709.81
247.468	15685.03
247.539	15657.27
247.61	15601.79
247.681	15581.3
247.752	15564.96
247.823	15530.74
247.894	15507.36
247.965	15466.44
248.037	15443.5
248.108	15388.45
248.179	15365.17
248.25	15329.07
248.321	15301.78
248.392	15265.2
248.463	15264.47
248.534	15234.83
248.605	15207.36
248.675	15159.97
248.746	15139.1
248.817	15113.22
248.888	15085.16
248.959	15033.1
249.03	15009.63
249.101	14977.67
249.172	14940.75
249.243	14890.81
249.314	14879.05
249.385	14849.59
249.456	14825.35
249.527	14791.94
249.598	14776.61
249.669	14746.44
249.739	14727.64
249.81	14708.31
249.881	14662.99
249.952	14632.91
250.023	14600.52
250.094	14561.33
250.165	14526.38
250.235	14497.65
250.306	14466.13
250.377	14428.19
250.448	14402.79
250.519	14358.48
250.59	14349.71
250.66	14322.23
250.731	14313.85
250.802	14285.94
250.873	14259.66
250.944	14236.81
251.014	14200.32
251.085	14197.72
251.156	14179.98
251.227	14162.48
251.297	14152.07
251.368	14141.61
251.439	14126.04
251.51	14115.87
251.58	14076.19
251.651	14043.36
251.722	14027.17
251.792	13988.79
251.863	13963.63
251.934	13959.63
252.005	13967.68
252.075	13943.67
252.146	13934.95
252.217	13931.67
252.287	13909.3
252.358	13883.8
252.429	13889.34
252.499	13859.31
252.57	13832.61
252.641	13815.83
252.711	13790.33
252.782	13745.79
252.852	13741.06
252.923	13714.79
252.994	13697.39
253.064	13689.05
253.135	13655.45
253.205	13627.68
253.276	13628.35
253.347	13621.36
253.417	13586.9
253.488	13553.06
253.558	13525.72
253.629	13495.06
253.699	13466.33
253.77	13463.68
253.841	13440.2
253.911	13411.47
253.982	13397.64
254.052	13380.96
254.123	13359.8
254.193	13333.62
254.264	13353.63
254.334	13313.04
254.405	13274.95
254.475	13238.32
254.546	13219.08
254.616	13221.25
254.687	13204.09
254.757	13185.29
254.827	13159.45
254.898	13143.25
254.968	13120.74
255.039	13084.49
255.109	13073.93
255.18	13036.57
255.25	12980.7
255.321	12972.27
255.391	12934.47
255.461	12930.09
255.532	12887.71
255.602	12860.91
255.673	12819.21
255.743	12780.74
255.813	12736.3
255.884	12723.81
255.954	12709.64
256.024	12705.35
256.095	12679.03
256.165	12648.42
256.235	12630.97
256.306	12608.89
256.376	12598.72
256.446	12591.15
256.517	12588.93
256.587	12576.11
256.657	12559.72
256.728	12551.24
256.798	12524.82
256.868	12506.6
256.938	12472.76
257.009	12461.48
257.079	12454.4
257.149	12463.94
257.219	12421.47
257.29	12412.89
257.36	12381.95
257.43	12375.58
257.5	12332.2
257.571	12306.32
257.641	12293.11
257.711	12260.76
257.781	12242.69
257.852	12232.52
257.922	12193.71
257.992	12169.37
258.062	12154.67
258.132	12153.61
258.202	12127.96
258.273	12105.65
258.343	12107.62
258.413	12087.76
258.483	12063.42
258.553	12031.56
258.623	11999.26
258.693	11988.37
258.764	11986.35
258.834	11980.9
258.904	11956.27
258.974	11925.33
259.044	11907.06
259.114	11900.31
259.184	11889.18
259.254	11874.86
259.324	11832.25
259.394	11814.37
259.464	11817.79
259.535	11786.7
259.605	11758.79
259.675	11732.04
259.745	11726.5
259.815	11688.71
259.885	11658.69
259.955	11673.73
260.025	11642.64
260.095	11630.16
260.165	11619.6
260.235	11625.34
260.305	11600.03
260.375	11572.08
260.445	11590.39
260.515	11592.9
260.585	11586.25
260.655	11566.78
260.725	11558.34
260.795	11548.51
260.865	11551.98
260.934	11518.82
261.004	11515.83
261.074	11491.11
261.144	11496.31
261.214	11488.17
261.284	11483.83
261.354	11482.62
261.424	11455.53
261.494	11460.35
261.564	11446.18
261.634	11441.75
261.703	11395.34
261.773	11383.1
261.843	11380.49
261.913	11356.4
261.983	11311.09
262.053	11295.29
262.123	11273.74
262.192	11242.47
262.262	11235.19
262.332	11203.48
262.402	11198.32
262.472	11181.6
262.541	11141.7
262.611	11137.07
262.681	11115.29
262.751	11100.69
262.821	11087
262.89	11046.42
262.96	11042.28
263.03	11045.46
263.1	11032.88
263.169	11023.43
263.239	11011.48
263.309	11008.93
263.379	11001.12
263.448	10999.73
263.518	10987.68
263.588	10970.23
263.657	10974.81
263.727	10968.69
263.797	10959.58
263.867	10944.11
263.936	10912.55
264.006	10923.44
264.076	10905.51
264.145	10882.48
264.215	10856.7
264.285	10845.09
264.354	10816.95
264.424	10788.52
264.494	10756.57
264.563	10735.8
264.633	10736.91
264.702	10732.19
264.772	10700.48
264.842	10678.07
264.911	10671.33
264.981	10635.76
265.05	10625.98
265.12	10600.78
265.19	10593.02
265.259	10583.72
265.329	10569.51
265.398	10556.98
265.468	10566.62
265.537	10545.9
265.607	10543.3
265.676	10542
265.746	10532.17
265.815	10535.73
265.885	10519.26
265.955	10497.09
266.024	10476.09
266.094	10438.89
266.163	10439.28
266.232	10440.1
266.302	10426.9
266.371	10412.49
266.441	10405.7
266.51	10400.88
266.58	10385.56
266.649	10359.35
266.719	10352.75
266.788	10347.3
266.858	10356.36
266.927	10321.62
266.996	10309.24
267.066	10291.99
267.135	10263.96
267.205	10263.33
267.274	10249.84
267.343	10258.61
267.413	10246.85
267.482	10253.17
267.552	10260.68
267.621	10222.33
267.69	10189.24
267.76	10175.31
267.829	10165.78
267.898	10155.71
267.968	10133.31
268.037	10132.63
268.106	10126.8
268.176	10103.63
268.245	10086.77
268.314	10068.17
268.384	10064.46
268.453	10055.17
268.522	10049.48
268.592	10057.86
268.661	10030.12
268.73	10028.67
268.799	10003.09
268.869	10009.45
268.938	9974.04
269.007	9951.69
269.076	9949.19
269.146	9953.24
269.215	9946.15
269.284	9953.91
269.353	9936.67
269.422	9922.56
269.492	9902.85
269.561	9859.65
269.63	9853.68
269.699	9831.62
269.768	9817.94
269.838	9808.4
269.907	9805.8
269.976	9784.7
270.045	9748.2
270.114	9749.06
270.183	9727.58
270.253	9716.31
270.322	9685.49
270.391	9673.98
270.46	9681.2
270.529	9681.11
270.598	9674.94
270.667	9664.92
270.736	9638.72
270.806	9629.9
270.875	9634.72
270.944	9622.54
271.013	9646.47
271.082	9644.4
271.151	9647
271.22	9616.57
271.289	9608.72
271.358	9599.32
271.427	9588.34
271.496	9579.29
271.565	9559.07
271.634	9555.94
271.703	9561.91
271.772	9562.97
271.841	9554.11
271.91	9524.92
271.979	9508.5
272.048	9478.02
272.117	9476.47
272.186	9458.99
272.255	9455.33
272.324	9456.87
272.393	9453.6
272.462	9438.81
272.531	9423.07
272.6	9412.66
272.669	9425.09
272.738	9412.08
272.807	9402.26
272.876	9386.8
272.945	9413.24
273.013	9416.81
273.082	9421.96
273.151	9399.28
273.22	9400.96
273.289	9395.14
273.358	9405.97
273.427	9397.93
273.496	9404.38
273.564	9401.54
273.633	9410.4
273.702	9394.03
273.771	9379.44
273.84	9377.46
273.909	9378.62
273.977	9382.66
274.046	9368.41
274.115	9370
274.184	9348.48
274.253	9339.86
274.322	9346.6
274.39	9318.05
274.459	9305.29
274.528	9270.09
274.597	9263.59
274.665	9253.62
274.734	9258.39
274.803	9247.17
274.872	9237.78
274.94	9221.7
275.009	9282.78
275.078	9258.03
275.147	9252.98
275.215	9247.06
275.284	9251.68
275.353	9233.72
275.421	9206.23
275.49	9222.6
275.559	9213.74
275.627	9214.31
275.696	9206.8
275.765	9203.96
275.833	9192.07
275.902	9188.75
275.971	9202.95
276.039	9216.43
276.108	9218.31
276.177	9220
276.245	9207.62
276.314	9204.2
276.383	9211.19
276.451	9141.58
276.52	9150.87
276.588	9171.38
276.657	9178.03
276.725	9164.74
276.794	9171.19
276.863	9179.47
276.931	9154.14
277	9153.47
277.068	9164.21
277.137	9187.66
277.205	9182.36
277.274	9200.17
277.342	9207.35
277.411	9186.65
277.48	9172.73
277.548	9164.26
277.617	9161.08
277.685	9158.77
277.754	9157.23
277.822	9152.08
277.89	9166.09
277.959	9155.69
278.027	9132.34
278.096	9118.23
278.164	9146.88
278.233	9134.99
278.301	9131.24
278.37	9142.55
278.438	9131.57
278.507	9129.07
278.575	9088
278.643	9093.01
278.712	9075.2
278.78	9061.96
278.849	9076.64
278.917	9083.67
278.985	9076.35
279.054	9078.13
279.122	9088.82
279.191	9096.76
279.259	9083.86
279.327	9057.38
279.396	9075.96
279.464	9071.53
279.532	9076.06
279.601	9064.79
279.669	9060.8
279.737	9068.74
279.806	9069.41
279.874	9078.85
279.942	9076.54
280.011	9077.74
280.079	9090.89
280.147	9107.78
280.215	9112.31
280.284	9102.83
280.352	9090.17
280.42	9097.05
280.488	9087.95
280.557	9083.28
280.625	9080.44
280.693	9085.06
280.761	9088.82
280.83	9066.33
280.898	9086.94
280.966	9071.44
281.034	9039.32
281.102	9026.33
281.171	9020.21
281.239	9026.62
281.307	9022.76
281.375	9013.71
281.443	9039.09
281.512	9029.98
281.58	9041.54
281.648	9028.21
281.716	9028.74
281.784	9031.14
281.852	9025.61
281.92	9026.47
281.989	9034.13
282.057	9016.22
282.125	9065.43
282.193	9062.69
282.261	9068.08
282.329	9054.65
282.397	9057.97
282.465	9064.95
282.533	9078.81
282.601	9068.61
282.67	9043.23
282.738	9031.01
282.806	9050.07
282.874	9037.5
282.942	9034.57
283.01	9025.18
283.078	9032.78
283.146	9032.49
283.214	9039.19
283.282	9045.64
283.35	9054.98
283.418	9046.99
283.486	9055.79
283.554	9006.77
283.622	9003.79
283.69	8998.88
283.758	8994.45
283.826	8996.52
283.894	9014.05
283.962	9033.64
284.03	9048.71
284.098	9047.27
284.165	9046.35
284.233	9040.09
284.301	9034.8
284.369	9024.83
284.437	9012.84
284.505	9007.5
284.573	9025.17
284.641	9017.7
284.709	9020.06
284.777	9002.2
284.845	9009.67
284.912	9011.01
284.98	9018.81
285.048	9015.15
285.116	9021.17
285.184	9031.28
285.252	9035.37
285.319	9010.24
285.387	9001.77
285.455	8981.98
285.523	8991.42
285.591	8986.6
285.659	8987.09
285.726	8995.94
285.794	8985.11
285.862	8984.49
285.93	8979.67
285.997	8967.11
286.065	8960.32
286.133	8950.07
286.201	8946.79
286.269	8929.56
286.336	8921.28
286.404	8911.46
286.472	8918.82
286.539	8899.96
286.607	8885.99
286.675	8883.25
286.743	8888.74
286.81	8886.62
286.878	8902.22
286.946	8896.97
287.013	8896.34
287.081	8892.59
287.149	8878.92
287.216	8897.5
287.284	8891.1
287.352	8892.92
287.419	8891
287.487	8908.81
287.555	8919.4
287.622	8917.04
287.69	8925.23
287.758	8939.77
287.825	8940.2
287.893	8930.57
287.96	8939.33
288.028	8954.21
288.096	8953.34
288.163	8954.11
288.231	8941.11
288.298	8936.49
288.366	8955.07
288.433	8950.36
288.501	8943.09
288.569	8944.53
288.636	8936.01
288.704	8949.83
288.771	8959.7
288.839	8951.56
288.906	8934.95
288.974	8942.32
289.041	8938.04
289.109	8929.03
289.176	8936.98
289.244	8941.45
289.311	8955.85
289.379	8962.78
289.446	8960.95
289.514	8961.29
289.581	8963.69
289.649	8965.19
289.716	8969.23
289.783	8956.52
289.851	8973.8
289.918	8971.63
289.986	8982.42
290.053	8984.29
290.121	8983.52
290.188	8979.38
290.255	9009.76
290.323	9010.1
290.39	8997.63
290.458	9007.01
290.525	9022.18
290.592	9017.22
290.66	9018.33
290.727	9010.91
290.794	9025.5
290.862	9023.77
290.929	9035.61
290.996	9034.94
291.064	9044.13
291.131	9058.09
291.198	9071.38
291.266	9074.42
291.333	9081.49
291.4	9088.23
291.468	9110
291.535	9103.98
291.602	9112.79
291.669	9104.51
291.737	9109.95
291.804	9111.2
291.871	9127.47
291.938	9132.14
292.006	9156.55
292.073	9166.62
292.14	9177.06
292.207	9173.21
292.275	9178.22
292.342	9181.44
292.409	9207.35
292.476	9231.42
292.543	9221.27
292.611	9224.49
292.678	9244.81
292.745	9265.13
292.812	9274.76
292.879	9272.25
292.946	9278.61
293.014	9294.93
293.081	9306.87
293.148	9324.11
293.215	9341.88
293.282	9338.75
293.349	9350.21
293.416	9332.63
293.484	9350.06
293.551	9364.32
293.618	9379.05
293.685	9405.01
293.752	9397.98
293.819	9401.01
293.886	9384.3
293.953	9393.4
294.02	9396.34
294.087	9396.68
294.154	9396.19
294.221	9415.36
294.288	9413.24
294.356	9432.02
294.423	9435.01
294.49	9423.21
294.557	9435.83
294.624	9429.13
294.691	9449.89
294.758	9449.74
294.825	9457.5
294.892	9452.68
294.959	9446.81
295.026	9456.15
295.093	9451
295.16	9449.94
295.226	9447.53
295.293	9477.1
295.36	9486.2
295.427	9497.28
295.494	9509.51
295.561	9511
295.628	9533.55
295.695	9547.37
295.762	9547.8
295.829	9559.36
295.896	9584.54
295.963	9591.67
296.03	9601.26
296.096	9611.13
296.163	9624.71
296.23	9645.32
296.297	9655.15
296.364	9659.72
296.431	9664.92
296.498	9656.83
296.564	9689.63
296.631	9691.02
296.698	9676.62
296.765	9696.66
296.832	9686.69
296.899	9677.15
296.965	9696.37
297.032	9669.25
297.099	9691.89
297.166	9699.21
297.233	9694.68
297.299	9683.03
297.366	9682.59
297.433	9688.47
297.5	9698.15
297.566	9699.31
297.633	9694.44
297.7	9695.93
297.767	9693.33
297.833	9696.42
297.9	9698.82
297.967	9681.73
298.033	9701.33
298.1	9737.65
298.167	9724.94
298.234	9733.94
298.3	9743.14
298.367	9742.75
298.434	9758.26
298.5	9749.88
298.567	9747.67
298.634	9748.2
298.7	9766.69
298.767	9767.08
298.834	9776.9
298.9	9763.99
298.967	9753.4
299.033	9760.86
299.1	9780.61
299.167	9800.55
299.233	9792.65
299.3	9814.76
299.366	9837.68
299.433	9854.74
299.5	9818.71
299.566	9827.62
299.633	9853.63
299.699	9870.29
299.766	9866.54
299.832	9866.73
299.899	9874.82
299.965	9886.96
300.032	9881.95
300.099	9888.36
300.165	9904.06
300.232	9907.82
300.298	9908.64
300.365	9925.4
300.431	9929.93
300.498	9917.88
300.564	9924.63
300.631	9941.2
300.697	9953.58
300.763	9951.46
300.83	9944.86
300.896	9963.69
300.963	9966.97
301.029	9966.1
301.096	9964.36
301.162	9983.34
301.229	9983.73
301.295	9971.54
301.361	9981.61
301.428	9988.45
301.494	9974.58
301.561	9971.73
301.627	9966.96
301.693	9976.6
301.76	9979.3
301.826	9971.4
301.892	9993.31
301.959	10002.85
302.025	9998.32
302.092	9987.77
302.158	9994.08
302.224	9993.36
302.291	9983.82
302.357	9985.51
302.423	9976.74
302.49	9974.19
302.556	9978
302.622	9974.09
302.688	9986.43
302.755	9997.02
302.821	10002.71
302.887	10010.51
302.954	10006.08
303.02	10020.05
303.086	10022.26
303.152	10026.55
303.219	10019.47
303.285	10013.45
303.351	10017.45
303.417	10020.43
303.483	10009.36
303.55	9998.57
303.616	9999.14
303.682	9998.37
303.748	9991.87
303.815	10008.35
303.881	10015.48
303.947	10000.3
304.013	9997.32
304.079	9986.48
304.145	9969.76
304.212	9970.15
304.278	9964.51
304.344	9960.85
304.41	9949.24
304.476	9933.68
304.542	9923.42
304.608	9938.55
304.674	9926.7
304.741	9915.71
304.807	9917.74
304.873	9919.23
304.939	9936.09
305.005	9916.24
305.071	9910.94
305.137	9907.28
305.203	9878.04
305.269	9875.54
305.335	9890.86
305.401	9892.69
305.467	9889.65
305.533	9891.2
305.599	9906.03
305.666	9919.62
305.732	9921.64
305.798	9930.55
305.864	9966.29
305.93	9972.31
305.996	9963.26
306.062	9971.11
306.128	9967.11
306.194	9954.06
306.259	9959.69
306.325	9952.42
306.391	9968.22
306.457	9984.69
306.523	9993.7
306.589	10018.84
306.655	10007.62
306.721	9984.26
306.787	9973.95
306.853	9995.48
306.919	9976.6
306.985	9962.83
307.051	9948.18
307.117	9941.29
307.183	9942.6
307.248	9912.2
307.314	9915.09
307.38	9915.86
307.446	9914.7
307.512	9905.26
307.578	9915.23
307.644	9911.09
307.709	9914.13
307.775	9901.79
307.841	9894.86
307.907	9892.79
307.973	9873.71
308.039	9878.72
308.104	9891.82
308.17	9888.69
308.236	9868.46
308.302	9882.57
308.368	9866.1
308.433	9874.67
308.499	9872.22
308.565	9852.13
308.631	9855.36
308.696	9834.02
308.762	9828.29
308.828	9825.16
308.894	9809.89
308.959	9785.62
309.025	9778.63
309.091	9773.24
309.156	9768.85
309.222	9776.85
309.288	9766.78
309.354	9742.7
309.419	9743.28
309.485	9725.6
309.551	9737.12
309.616	9721.8
309.682	9712.5
309.748	9712.94
309.813	9698.59
309.879	9681.06
309.945	9671.13
310.01	9665.36
310.076	9660.39
310.141	9661.5
310.207	9643.97
310.273	9642.43
310.338	9652.01
310.404	9638.96
310.469	9626.87
310.535	9614.78
310.601	9583.57
310.666	9588.58
310.732	9605.1
310.797	9585.35
310.863	9574.52
310.928	9565.27
310.994	9566.96
311.059	9563.1
311.125	9559.35
311.191	9580.54
311.256	9578.66
311.322	9587.38
311.387	9564.75
311.453	9981.06
311.518	9951.64
311.584	9950.29
311.649	9964.98
311.715	9944.95
311.78	9945.43
311.846	9936.33
311.911	9946.53
311.976	9952.36
312.042	9932.66
312.107	9910.08
312.173	9902.57
312.238	9894
312.304	9884.89
312.369	9877.96
312.434	9866.02
312.5	9859.08
312.565	9813.81
312.631	9817.18
312.696	9801.48
312.761	9806.44
312.827	9385.46
312.892	9420.71
312.958	9419.89
313.023	9414.98
313.088	9417.63
313.154	9405.44
313.219	9395.14
313.284	9380.98
313.35	9375.73
313.415	9366.44
313.48	9364.51
313.546	9372.84
313.611	9384.4
313.676	9375.88
313.741	9368.85
313.807	9377.85
313.872	9383.39
313.937	9395.72
314.003	9401.35
314.068	9405.54
314.133	9412.81
314.198	9403.32
314.264	9382.47
314.329	9370.48
314.394	9363.83
314.459	9359.26
314.525	9374.96
314.59	9366.77
314.655	9357.29
314.72	9362.82
314.785	9369.04
314.851	9364.94
314.916	9339.33
314.981	9326.37
315.046	9311.88
315.111	9302.16
315.176	9284.19
315.242	9285.06
315.307	9282.61
315.372	9263.97
315.437	9250.2
315.502	9234.55
315.567	9249.33
315.632	9234.07
315.698	9240.81
315.763	9234.98
315.828	9223.48
315.893	9223.86
315.958	9226.94
316.023	9218.28
316.088	9202.63
316.153	9178.27
316.218	9173.07
316.283	9160.79
316.348	9138.46
316.413	9143.18
316.479	9127.63
316.544	9092.73
316.609	9064.76
316.674	9030.92
316.739	8995.2
316.804	8967.19
316.869	8934.7
316.934	8891.22
316.999	8863.5
317.064	8805.79
317.129	8762.17
317.194	8727.67
317.259	8669.95
317.324	8610.57
317.389	8562.69
317.454	8520.43
317.518	8485.3
317.583	8459.17
317.648	8432.51
317.713	8399.36
317.778	8335.98
317.843	8300.81
317.908	8268.73
317.973	8223.93
318.038	8191.41
318.103	8158.79
318.168	8127.33
318.233	8097.02
318.297	8049.3
318.362	8013.85
318.427	7977.73
318.492	7950.12
318.557	7902.75
318.622	7877.26
318.687	7857.3
318.751	7819.9
318.816	7785.08
318.881	7756.22
318.946	7706.49
319.011	7662.25
319.075	7619.99
319.14	7585.48
319.205	7542.79
319.27	7506.69
319.335	7460.64
319.399	7420.07
319.464	7392.81
319.529	7338.93
319.594	7297.74
319.658	7269.23
319.723	7222.71
319.788	7191.38
319.853	7135.05
319.917	7106.18
319.982	7051.83
320.047	7012.67
320.112	6987.3
320.176	6935.37
320.241	6899.38
320.306	6864.54
320.37	6817.04
320.435	6792.01
320.5	6766.75
320.564	6730.25
320.629	6691.88
320.694	6664.03
320.758	6621.82
320.823	6572.94
320.888	6546.77
320.952	6496.07
321.017	6449.16
321.082	6407.11
321.146	6373.6
321.211	6337.84
321.275	6300.41
321.34	6252.14
321.405	6206.64
321.469	6152.66
321.534	6109.82
321.598	6056.99
321.663	6023.58
321.727	5997.24
321.792	5945.33
321.857	5900.94
321.921	5861.32
321.986	5815.81
322.05	5755.63
322.115	5720.66
322.179	5681.2
322.244	5625.88
322.308	5600.65
322.373	5556.02
322.437	5515.18
322.502	5486.07
322.566	5441.78
322.631	5399.84
322.695	5363.05
322.76	5322.6
322.824	5293.38
322.889	5256.01
322.953	5206.82
323.018	5132.23
323.082	5067.04
323.146	5013.55
323.211	4957.33
323.275	4914.32
323.34	4870.13
323.404	4838.44
323.468	4786.06
323.533	4739.77
323.597	4688.53
323.662	4630.03
323.726	4595.33
323.79	4547.47
323.855	4481.17
323.919	4435.67
323.983	4393.8
324.048	4324.78
324.112	4490.32
324.177	4358.46
324.241	4130.41
324.305	3914.32
324.37	3705.25
324.434	3496.77
324.498	3452.58
324.562	3400.78
324.627	3335.42
324.691	3276.48
324.755	3203.78
324.82	3128.41
324.884	3047.59
324.948	2977.65
325.012	2877.32
325.077	2742.77
