Data from 20250703_urea_0.1M_MAYP1162681_02-21-05-350.txt Node
Date: Fri Jul 04 02:21:05 BST 2025
User: adleo
Spectrometer: MAYP116268
Trigger mode: 0
Integration Time (sec): 1.000000E0
Scans to average: 1
Electric dark correction enabled: true
Nonlinearity correction enabled: true
Boxcar width: 10
XAxis mode: Wavelengths
Number of Pixels in Spectrum: 2068
>>>>>Begin Spectral Data<<<<<
179.565	1315.18
179.642	1378.34
179.718	1430.09
179.795	1472.02
179.871	1509.56
179.948	1529.8
180.024	1552.3
180.101	1579.4
180.177	1594.25
180.254	1623.43
180.33	1645.27
180.407	1708.77
180.483	1811.58
180.56	1911.41
180.636	2004.57
180.712	1992.77
180.789	2001.19
180.865	2012.79
180.942	2019.21
181.018	2032.04
181.095	2046.55
181.171	2051.22
181.248	2051.98
181.324	2066.92
181.4	2073.1
181.477	2082.52
181.553	2096.02
181.63	2117.86
181.706	2134.27
181.782	2144.5
181.859	2139.88
181.935	2146.16
182.011	2139.45
182.088	2157.67
182.164	2176.05
182.24	2189.36
182.317	2198.45
182.393	2196.36
182.469	2212.53
182.546	2228.37
182.622	2231.94
182.698	2226.09
182.775	2239.03
182.851	2256.5
182.927	2247.84
183.003	2246.74
183.08	2240.37
183.156	2249.69
183.232	2246.88
183.308	2231.66
183.385	2240.41
183.461	2259.45
183.537	2260.64
183.613	2276.53
183.69	2269.34
183.766	2258.97
183.842	2269.2
183.918	2274.67
183.995	2290.71
184.071	2294.75
184.147	2292.66
184.223	2283.1
184.299	2299.76
184.375	2289.81
184.452	2294.62
184.528	2346.99
184.604	2356.41
184.68	2370.21
184.756	2377.68
184.832	2381.01
184.908	2388
184.985	2384.96
185.061	2366.92
185.137	2380.44
185.213	2368.59
185.289	2369.92
185.365	2363.31
185.441	2358.07
185.517	2374.6
185.593	2370.41
185.669	2365.93
185.745	2376.64
185.822	2392.44
185.898	2382.16
185.974	2390.48
186.05	2378.77
186.126	2343.59
186.202	2335.12
186.278	2331.17
186.354	2322.6
186.43	2330.79
186.506	2329.84
186.582	2332.55
186.658	2342.45
186.734	2319.51
186.81	2322.75
186.886	2321.51
186.962	2334.5
187.038	2332.46
187.114	2320.84
187.19	2329.6
187.266	2322.65
187.341	2320.93
187.417	2316.17
187.493	2314.94
187.569	2319.17
187.645	2316.41
187.721	2302.7
187.797	2311.65
187.873	2317.88
187.949	2311.27
188.025	2304.46
188.101	2305.56
188.176	2311.7
188.252	2304.84
188.328	2312.5
188.404	2313.88
188.48	2314.74
188.556	2306.27
188.632	2305.17
188.707	2306.27
188.783	2302.31
188.859	2295.75
188.935	2285.42
189.011	2294.7
189.086	2290.28
189.162	2281.42
189.238	2278.86
189.314	2279.24
189.39	2273.29
189.465	2261.96
189.541	2279.81
189.617	2265.1
189.693	2261.49
189.768	2260.49
189.844	2286.91
189.92	2277.54
189.996	2286.59
190.071	2295.68
190.147	2297.96
190.223	2310.62
190.298	2304.72
190.374	2289.45
190.45	2302.58
190.526	2313.67
190.601	2305.91
190.677	2305.29
190.753	2333.24
190.828	2337.05
190.904	2351.24
190.98	2368.99
191.055	2381.94
191.131	2373.08
191.207	2396.98
191.282	2407.02
191.358	2401.59
191.433	2384.93
191.509	2399.43
191.585	2394.77
191.66	2395.63
191.736	2402.01
191.811	2392.29
191.887	2408.86
191.963	2435.9
192.038	2441.23
192.114	2440.33
192.189	2441.47
192.265	2437.9
192.34	2417.42
192.416	2413.9
192.491	2409.43
192.567	2410.43
192.642	2415.9
192.718	2412.81
192.793	2396.15
192.869	2392.15
192.944	2394.19
193.02	2403.24
193.095	2408.57
193.171	2413.71
193.246	2412.57
193.322	2410.38
193.397	2409.91
193.473	2393.76
193.548	2373.53
193.624	2377.76
193.699	2374.67
193.775	2392.29
193.85	2392.67
193.925	2403.86
194.001	2404.38
194.076	2397.72
194.152	2387.34
194.227	2377.01
194.302	2367.44
194.378	2372.68
194.453	2368.78
194.529	2383.25
194.604	2369.3
194.679	2362.92
194.755	2342.7
194.83	2356.03
194.905	2353.18
194.981	2362.7
195.056	2355.89
195.131	2363.6
195.207	2362.37
195.282	2356.04
195.357	2337.28
195.433	2356.27
195.508	2338.7
195.583	2345.6
195.659	2360.79
195.734	2369.65
195.809	2369.65
195.884	2383.35
195.96	2383.06
196.035	2401.87
196.11	2394.96
196.185	2407.81
196.261	2412.29
196.336	2447.52
196.411	2434.61
196.486	2440.04
196.561	2431.85
196.637	2440.37
196.712	2455.94
196.787	2460.32
196.862	2473.7
196.937	2485.79
197.013	2493.13
197.088	2505.88
197.163	2530.22
197.238	2548.81
197.313	2548
197.388	2563.48
197.464	2597.45
197.539	2608.02
197.614	2598.97
197.689	2614.31
197.764	2631.6
197.839	2651.32
197.914	2643.32
197.989	2668.85
198.065	2684.72
198.14	2739.49
198.215	2767.78
198.29	2783.32
198.365	2794.43
198.44	2807.15
198.515	2835.22
198.59	2851.52
198.665	2878.11
198.74	2889.41
198.815	2889.98
198.89	2914.09
198.965	2947.09
199.04	2938.65
199.115	2958.57
199.19	3005.28
199.265	3006.57
199.34	3016.96
199.415	3056.13
199.49	3080.05
199.565	3088.06
199.64	3111.09
199.715	3106.51
199.79	3118.29
199.865	3123.87
199.94	3125.59
200.015	3160.17
200.09	3166.28
200.165	3169.95
200.24	3178.34
200.315	3222.13
200.39	3238.92
200.464	3247.88
200.539	3246.45
200.614	3264.77
200.689	3290.58
200.764	3299.46
200.839	3318.15
200.914	3322.3
200.989	3309.74
201.063	3323.34
201.138	3305.18
201.213	3311.24
201.288	3293.3
201.363	3294.78
201.438	3295.25
201.512	3315.48
201.587	3295.05
201.662	3301.16
201.737	3316.33
201.812	3327.5
201.886	3291.16
201.961	3300.47
202.036	3285.54
202.111	3283.77
202.186	3254.6
202.26	3233.74
202.335	3209.55
202.41	3206.69
202.485	3191.53
202.559	3171.16
202.634	3147.22
202.709	3162.38
202.784	3142.96
202.858	3145.3
202.933	3128.46
203.008	3125.94
203.082	3105.43
203.157	3108.86
203.232	3068.01
203.306	3049.93
203.381	3019.45
203.456	2998.99
203.53	2982.48
203.605	2969.94
203.68	2952.63
203.754	2956.92
203.829	2951.34
203.904	2938.8
203.978	2934.13
204.053	2949.53
204.127	2952.77
204.202	2965.07
204.277	2959.88
204.351	2967.89
204.426	2979.15
204.5	2991.07
204.575	2976.24
204.65	3007.58
204.724	3023.61
204.799	3055.4
204.873	3081.12
204.948	3109.6
205.022	3128.72
205.097	3153.97
205.171	3199.43
205.246	3245.11
205.32	3280.11
205.395	3320.39
205.469	3355.64
205.544	3405.82
205.618	3433.46
205.693	3492.1
205.767	3530.58
205.842	3604.76
205.916	3655.28
205.991	3698.75
206.065	3764.11
206.14	3837.35
206.214	3892.33
206.289	3948.54
206.363	4028.74
206.438	4094.35
206.512	4170
206.586	4260.12
206.661	4340.61
206.735	4398.66
206.81	4478.5
206.884	4576.35
206.958	4641.13
207.033	4742.43
207.107	4839.47
207.181	4964.91
207.256	5046.87
207.33	5154.16
207.405	5258.53
207.479	5367.4
207.553	5473.83
207.628	5549.93
207.702	5662.58
207.776	5761.31
207.851	5868.69
207.925	5993.74
207.999	6099.82
208.073	6202.51
208.148	6316.4
208.222	6409.63
208.296	6553.29
208.371	6680.29
208.445	6803.4
208.519	6951.16
208.593	7076.69
208.668	7182.41
208.742	7295.88
208.816	7410.24
208.89	7544.13
208.965	7654.3
209.039	7781.74
209.113	7914.27
209.187	8059.75
209.261	8165.93
209.336	8303.12
209.41	8440.48
209.484	8554.64
209.558	8696.75
209.632	8832.12
209.707	8957.02
209.781	9100.99
209.855	9232.67
209.929	9369.88
210.003	9492.52
210.077	9602.6
210.151	9774.03
210.226	9929.17
210.3	10077.98
210.374	10223.68
210.448	10344.16
210.522	10473.95
210.596	10601.29
210.67	10722.79
210.744	10880.69
210.818	11033.95
210.892	11168.49
210.966	11276.53
211.041	11404.38
211.115	11511.75
211.189	11649.49
211.263	11785.5
211.337	11898.52
211.411	12020.56
211.485	12123.95
211.559	12243
211.633	12362.39
211.707	12427.18
211.781	12542.73
211.855	12615.76
211.929	12718.96
212.003	12804.18
212.077	12919.1
212.151	13035.13
212.225	13150.78
212.299	13242.95
212.373	13335.84
212.447	13439.77
212.52	13581.16
212.594	13686.3
212.668	13803.53
212.742	13879.99
212.816	13966.28
212.89	14057
212.964	14153.99
213.038	14251.03
213.112	14360.16
213.186	14464.53
213.26	14531.68
213.333	14567.69
213.407	14661.16
213.481	14745.37
213.555	14845.3
213.629	14921.22
213.703	14992.94
213.777	15077.11
213.85	15142.04
213.924	15257.29
213.998	15332.77
214.072	15398.22
214.146	15464.93
214.219	15534.63
214.293	15614.21
214.367	15693.94
214.441	15788.31
214.515	15858.49
214.588	15911.32
214.662	15948.91
214.736	15995.67
214.81	16083.97
214.883	16168.51
214.957	16225.44
215.031	16285.4
215.105	16334.03
215.178	16388.44
215.252	16449.22
215.326	16498.19
215.4	16549.61
215.473	16566
215.547	16612.41
215.621	16660.66
215.694	16730.64
215.768	16772.52
215.842	16818.54
215.915	16864.76
215.989	16892.43
216.063	16927.7
216.136	16982.31
216.21	17044.82
216.284	17115.23
216.357	17172.05
216.431	17226.12
216.504	17288.77
216.578	17369.93
216.652	17431.81
216.725	17481.26
216.799	17540.1
216.873	17588.82
216.946	17642.65
217.02	17687.96
217.093	17734.27
217.167	17766.89
217.24	17803.09
217.314	17845.35
217.387	17893.54
217.461	17941.4
217.535	18002.02
217.608	18051.75
217.682	18102.79
217.755	18154.93
217.829	18203.55
217.902	18260.47
217.976	18310.01
218.049	18343.21
218.123	18375.59
218.196	18425.33
218.27	18475.4
218.343	18507.59
218.417	18565.37
218.49	18606.09
218.563	18674.13
218.637	18725.41
218.71	18795.23
218.784	18845.54
218.857	18915.8
218.931	18969.25
219.004	19020.38
219.077	19076.37
219.151	19124.42
219.224	19164.46
219.298	19212.7
219.371	19265.32
219.444	19291.49
219.518	19337.13
219.591	19385.85
219.665	19451.92
219.738	19497.99
219.811	19529.07
219.885	19580.97
219.958	19627.52
220.031	19669.3
220.105	19709.98
220.178	19756.19
220.251	19784.33
220.325	19832.62
220.398	19865.63
220.471	19916.23
220.544	19965.39
220.618	19995.17
220.691	20038.64
220.764	20081.43
220.838	20131.12
220.911	20166.54
220.984	20226.3
221.057	20275.69
221.131	20323.74
221.204	20339.31
221.277	20403.21
221.35	20470.39
221.424	20504.37
221.497	20545.96
221.57	20585.57
221.643	20633.28
221.716	20676.03
221.79	20707.41
221.863	20735.84
221.936	20773.63
222.009	20791.94
222.082	20826.35
222.155	20852.52
222.229	20898.06
222.302	20935.03
222.375	20952.53
222.448	20982.79
222.521	21009.3
222.594	21034.6
222.667	21050.46
222.74	21093.16
222.814	21103.86
222.887	21129.17
222.96	21164.78
223.033	21188.26
223.106	21228.4
223.179	21266
223.252	21282.72
223.325	21312.85
223.398	21340.03
223.471	21349.57
223.544	21378.25
223.617	21387.36
223.69	21421.82
223.763	21425.97
223.837	21442.16
223.91	21468
223.983	21481.54
224.056	21484.96
224.129	21504.58
224.202	21538.51
224.275	21538.03
224.348	21537.64
224.42	21532.53
224.493	21527.47
224.566	21539.72
224.639	21565.6
224.712	21563.48
224.785	21577.6
224.858	21581.41
224.931	21583.96
225.004	21597.27
225.077	21608.98
225.15	21604.69
225.223	21599.97
225.296	21635.01
225.369	21633.52
225.442	21631.97
225.514	21636.41
225.587	21654.97
225.66	21663.3
225.733	21665.91
225.806	21675.69
225.879	21687.65
225.952	21690.01
226.025	21721.77
226.097	21737.87
226.17	21730.26
226.243	21705.19
226.316	21713.63
226.389	21721.34
226.461	21734.26
226.534	21736.52
226.607	21739.22
226.68	21768.34
226.753	21785.69
226.825	21765.3
226.898	21786.51
226.971	21800.2
227.044	21812.68
227.117	21812.58
227.189	21817.89
227.262	21830.76
227.335	21844.54
227.407	21843.19
227.48	21854.33
227.553	21842.66
227.626	21835.38
227.698	21831.29
227.771	21842.08
227.844	21829.84
227.916	21833.55
227.989	21810.99
228.062	21812.68
228.134	21836.64
228.207	21825.55
228.28	21807.23
228.352	21801.16
228.425	21797.45
228.498	21799.76
228.57	21777.35
228.643	21788.58
228.716	21778.94
228.788	21762.89
228.861	21739.56
228.934	21754.21
229.006	21743.46
229.079	21742.59
229.151	21722.59
229.224	21698.59
229.296	21703.89
229.369	21728.52
229.442	21736.72
229.514	21729.82
229.587	21735.7
229.659	21697.34
229.732	21691.36
229.804	21696.61
229.877	21716.42
229.949	21725.73
230.022	21736.28
230.094	21730.64
230.167	21721.68
230.239	21703.8
230.312	21702.64
230.384	21726.16
230.457	21726.65
230.529	21723.85
230.602	21713.63
230.674	21719.66
230.747	21735.9
230.819	21735.08
230.892	21686.73
230.964	21675.89
231.037	21674.88
231.109	21661.86
231.181	21671.5
231.254	21652.61
231.326	21645.86
231.399	21626.92
231.471	21607.34
231.544	21565.22
231.616	21575.92
231.688	21564.54
231.761	21546.85
231.833	21526.51
231.905	21489.73
231.978	21468.33
232.05	21453.25
232.122	21443.13
232.195	21422.35
232.267	21417.05
232.339	21399.6
232.412	21410.16
232.484	21392.27
232.556	21368.08
232.629	21386.78
232.701	21381.62
232.773	21374.3
232.846	21349.24
232.918	21342.87
232.99	21320.41
233.062	21325.09
233.135	21303.64
233.207	21273.47
233.279	21279.2
233.351	21275.97
233.424	21250.82
233.496	21214.19
233.568	21218.04
233.64	21183.05
233.713	21168.64
233.785	21145.12
233.857	21124.25
233.929	21080.59
234.001	21079.43
234.074	21087.53
234.146	21033.88
234.218	21007.47
234.29	20980.77
234.362	20958.84
234.434	20909.58
234.507	20872.91
234.579	20818.01
234.651	20784.23
234.723	20769.77
234.795	20740.81
234.867	20707.21
234.939	20705.33
235.012	20696.47
235.084	20674.83
235.156	20659.98
235.228	20617.09
235.3	20586.1
235.372	20559.79
235.444	20557.48
235.516	20498.15
235.588	20464.32
235.66	20438.87
235.732	20398.29
235.804	20437.28
235.876	20417.33
235.948	20414.73
236.02	20397.52
236.092	20379.69
236.164	20359.93
236.236	20335.4
236.308	20303.02
236.38	20279.21
236.452	20235.84
236.524	20207.41
236.596	20198.92
236.668	20186.3
236.74	20166.93
236.812	20143.41
236.884	20128.71
236.956	20106.3
237.028	20072.95
237.1	20030.5
237.172	20015.27
237.244	20004.14
237.316	19935.75
237.388	19895.61
237.46	19858.98
237.532	19836.38
237.604	19798.55
237.675	19786.45
237.747	19758.94
237.819	19728.29
237.891	19695.86
237.963	19654.22
238.035	19615.57
238.107	19541.69
238.178	19520.59
238.25	19485.65
238.322	19477.12
238.394	19413.94
238.466	19369.99
238.538	19347.1
238.609	19325.76
238.681	19270.87
238.753	19226.72
238.825	19185.72
238.897	19158.3
238.968	19136.95
239.04	19107.99
239.112	19099.74
239.184	19049.15
239.255	19014.35
239.327	18982.11
239.399	18955.08
239.471	18942.98
239.542	18928.43
239.614	18911.76
239.686	18842.89
239.758	18825.64
239.829	18781.31
239.901	18781.55
239.973	18751.04
240.044	18727.77
240.116	18693.79
240.188	18662.33
240.259	18633.17
240.331	18599.39
240.403	18576.07
240.474	18527.06
240.546	18471.44
240.618	18421.09
240.689	18386.97
240.761	18354.2
240.833	18335.84
240.904	18287.12
240.976	18247.74
241.048	18201.24
241.119	18176.47
241.191	18153.53
241.262	18138.06
241.334	18102.16
241.405	18058.07
241.477	18009.63
241.549	17977.25
241.62	17947.23
241.692	17919.76
241.763	17901.74
241.835	17861.25
241.906	17822.65
241.978	17772.15
242.049	17757.4
242.121	17731.76
242.192	17706.41
242.264	17656.34
242.335	17610.85
242.407	17593.02
242.478	17549.26
242.55	17525.45
242.621	17478.8
242.693	17446.95
242.764	17404.44
242.836	17361.07
242.907	17336.78
242.979	17314.51
243.05	17277.98
243.122	17246.46
243.193	17215.77
243.264	17150.7
243.336	17110.65
243.407	17091.76
243.479	17079.18
243.55	17048.92
243.622	17018.27
243.693	16983.86
243.764	16965.54
243.836	16914.69
243.907	16870.5
243.978	16838.31
244.05	16810.06
244.121	16754.16
244.192	16729.43
244.264	16675.36
244.335	16642.82
244.407	16590.72
244.478	16566.34
244.549	16533.32
244.62	16486.19
244.692	16451.68
244.763	16431.39
244.834	16396.15
244.906	16348.97
244.977	16322.61
245.048	16301.35
245.119	16258.75
245.191	16221.1
245.262	16170.11
245.333	16155.51
245.405	16128.37
245.476	16102.92
245.547	16066.92
245.618	16048.02
245.689	16016.36
245.761	15984.79
245.832	15952.64
245.903	15929.55
245.974	15899.23
246.045	15852.58
246.117	15834.89
246.188	15783.75
246.259	15737.28
246.33	15705.08
246.401	15672.26
246.473	15616.06
246.544	15573.54
246.615	15559.08
246.686	15521.05
246.757	15501.82
246.828	15456.66
246.899	15440.46
246.97	15387.68
247.042	15343.72
247.113	15328.44
247.184	15314.75
247.255	15280.62
247.326	15252.47
247.397	15213.09
247.468	15178.29
247.539	15155.11
247.61	15116.59
247.681	15106.08
247.752	15091.53
247.823	15060.48
247.894	15040.29
247.965	15003.89
248.037	14969.86
248.108	14915.58
248.179	14884.35
248.25	14853.21
248.321	14830.65
248.392	14782.25
248.463	14781.05
248.534	14758.2
248.605	14733.28
248.675	14697.56
248.746	14675.34
248.817	14643.42
248.888	14623.56
248.959	14579.12
249.03	14560.51
249.101	14528.75
249.172	14491.19
249.243	14440.77
249.314	14427.76
249.385	14391.65
249.456	14381.09
249.527	14348.51
249.598	14334.48
249.669	14308.16
249.739	14290.32
249.81	14274.51
249.881	14240.19
249.952	14217.39
250.023	14187.06
250.094	14136.88
250.165	14095.57
250.235	14067.03
250.306	14045.24
250.377	14007.35
250.448	13985.52
250.519	13934.9
250.59	13932.73
250.66	13903.47
250.731	13899.47
250.802	13869.82
250.873	13850.59
250.944	13824.31
251.014	13793.32
251.085	13794.76
251.156	13774.52
251.227	13759.72
251.297	13743.71
251.368	13731.47
251.439	13710.55
251.51	13698.35
251.58	13664.37
251.651	13640.5
251.722	13635.2
251.792	13595.14
251.863	13572.44
251.934	13566.02
252.005	13585.79
252.075	13548.19
252.146	13537.24
252.217	13526.54
252.287	13513.82
252.358	13491.64
252.429	13484.89
252.499	13456.69
252.57	13429.5
252.641	13413.64
252.711	13380.62
252.782	13340.95
252.852	13332.46
252.923	13309.66
252.994	13292.79
253.064	13286.09
253.135	13255.24
253.205	13217.54
253.276	13215.22
253.347	13205.73
253.417	13169.77
253.488	13125.13
253.558	13106.28
253.629	13076.44
253.699	13049.88
253.77	13029.1
253.841	13001.53
253.911	12981.62
253.982	12966.62
254.052	12953.56
254.123	12939.05
254.193	12921.5
254.264	12940.3
254.334	12911.81
254.405	12876.24
254.475	12835.22
254.546	12810.97
254.616	12804.36
254.687	12792.84
254.757	12782.48
254.827	12763.73
254.898	12745.41
254.968	12721.93
255.039	12688.43
255.109	12683.18
255.18	12659.22
255.25	12617.09
255.321	12605.62
255.391	12569.94
255.461	12572.4
255.532	12524.58
255.602	12487.03
255.673	12439.79
255.743	12410.97
255.813	12364.59
255.884	12359.29
255.954	12350.37
256.024	12357.8
256.095	12336.25
256.165	12300.29
256.235	12279.47
256.306	12240.08
256.376	12236.71
256.446	12235.07
256.517	12220.76
256.587	12202.68
256.657	12183.06
256.728	12170.05
256.798	12150.28
256.868	12125.6
256.938	12091.86
257.009	12081.26
257.079	12073.74
257.149	12097.26
257.219	12053.25
257.29	12046.65
257.36	12002.16
257.43	11992.86
257.5	11946.53
257.571	11916.94
257.641	11905.71
257.711	11873.46
257.781	11874.52
257.852	11856.4
257.922	11819.48
257.992	11803.72
258.062	11782.03
258.132	11772.63
258.202	11753.68
258.273	11732.52
258.343	11735.8
258.413	11711.37
258.483	11693.29
258.553	11665.43
258.623	11626.82
258.693	11616.99
258.764	11615.59
258.834	11618.25
258.904	11598.82
258.974	11568.02
259.044	11548.94
259.114	11532.17
259.184	11514.09
259.254	11486.28
259.324	11448.26
259.394	11435.97
259.464	11439.68
259.535	11419.19
259.605	11393.46
259.675	11367.39
259.745	11359.53
259.815	11328.97
259.885	11304.11
259.955	11321.46
260.025	11292.3
260.095	11276.69
260.165	11258.47
260.235	11252.06
260.305	11222.86
260.375	11195.53
260.445	11208.11
260.515	11213.89
260.585	11215.29
260.655	11200.06
260.725	11195.34
260.795	11186.37
260.865	11186.85
260.934	11158.95
261.004	11153.84
261.074	11136.59
261.144	11136.54
261.214	11125.79
261.284	11106.66
261.354	11106.71
261.424	11073.26
261.494	11084.68
261.564	11070.32
261.634	11064.15
261.703	11023.33
261.773	11023.09
261.843	11015.53
261.913	10996.4
261.983	10955.77
262.053	10939.05
262.123	10918.28
262.192	10891.06
262.262	10890.19
262.332	10855.64
262.402	10842.72
262.472	10829.42
262.541	10795.12
262.611	10788.9
262.681	10764.71
262.751	10761.72
262.821	10742.35
262.89	10708.28
262.96	10697.68
263.03	10696.77
263.1	10685.25
263.169	10674.36
263.239	10654.46
263.309	10658.22
263.379	10646.03
263.448	10638.27
263.518	10629.55
263.588	10617.36
263.657	10621.7
263.727	10616.4
263.797	10599.68
263.867	10587.49
263.936	10559.54
264.006	10558.58
264.076	10543.83
264.145	10520.27
264.215	10493.24
264.285	10491.27
264.354	10460.82
264.424	10438.42
264.494	10411.44
264.563	10394.57
264.633	10405.36
264.702	10404.26
264.772	10365.57
264.842	10351.26
264.911	10343.31
264.981	10315.55
265.05	10300.81
265.12	10279.13
265.19	10257.64
265.259	10261.54
265.329	10250.42
265.398	10236.64
265.468	10254.32
265.537	10233.41
265.607	10232.5
265.676	10232.11
265.746	10218.04
265.815	10218.77
265.885	10201.28
265.955	10180.81
266.024	10156.43
266.094	10118.23
266.163	10113.7
266.232	10120.01
266.302	10104.06
266.371	10095.1
266.441	10086
266.51	10085.81
266.58	10064.23
266.649	10042.93
266.719	10035.18
266.788	10026.75
266.858	10039.18
266.927	9998.18
266.996	9982.62
267.066	9971.3
267.135	9945.44
267.205	9940.57
267.274	9929.25
267.343	9934.07
267.413	9925.21
267.482	9929.59
267.552	9933.83
267.621	9896.4
267.69	9860.85
267.76	9854.79
267.829	9842.6
267.898	9824.54
267.968	9798.34
268.037	9803.39
268.106	9803.54
268.176	9779.41
268.245	9758.26
268.314	9729.26
268.384	9733.21
268.453	9727.63
268.522	9721.22
268.592	9729.02
268.661	9705.08
268.73	9695.88
268.799	9670.17
268.869	9673.34
268.938	9639.05
269.007	9621.28
269.076	9618.3
269.146	9622.63
269.215	9608.28
269.284	9615.74
269.353	9599.8
269.422	9592.05
269.492	9570.72
269.561	9527.23
269.63	9521.89
269.699	9513.46
269.768	9510.86
269.838	9500.31
269.907	9498.63
269.976	9470.89
270.045	9433.62
270.114	9437.23
270.183	9426.3
270.253	9418.59
270.322	9385.7
270.391	9384.12
270.46	9382.96
270.529	9383.1
270.598	9375.3
270.667	9363.41
270.736	9338.17
270.806	9335.53
270.875	9333.89
270.944	9323.1
271.013	9351.46
271.082	9342.56
271.151	9340.2
271.22	9307.98
271.289	9289.74
271.358	9278.13
271.427	9275.19
271.496	9268.98
271.565	9255.74
271.634	9251.21
271.703	9290.13
271.772	9297.06
271.841	9286.52
271.91	9267.64
271.979	9256.13
272.048	9231.77
272.117	9235.72
272.186	9218.82
272.255	9218.58
272.324	9217.57
272.393	9213.57
272.462	9193.97
272.531	9185.64
272.6	9172.07
272.669	9181.6
272.738	9176.35
272.807	9168.89
272.876	9149.68
272.945	9181.6
273.013	9176.3
273.082	9177.89
273.151	9124.49
273.22	9125.02
273.289	9112.4
273.358	9120.2
273.427	9107.11
273.496	9111.97
273.564	9109.42
273.633	9117.6
273.702	9095.89
273.771	9084.24
273.84	9079.43
273.909	9082.65
273.977	9084.34
274.046	9074.32
274.115	9078.61
274.184	9066.57
274.253	9054.35
274.322	9067.92
274.39	9030.9
274.459	9021.7
274.528	8992.67
274.597	8979.1
274.665	8971.25
274.734	8981.65
274.803	8966.39
274.872	8965.19
274.94	8950.7
275.009	8976.8
275.078	8963.03
275.147	8965.29
275.215	8958.46
275.284	8962.6
275.353	8944.11
275.421	8913.3
275.49	8924.28
275.559	8911.33
275.627	8904.3
275.696	8901.65
275.765	8895.06
275.833	8892.75
275.902	8888.8
275.971	8903.82
276.039	8928.03
276.108	8927.41
276.177	8924.9
276.245	8916.43
276.314	8913.4
276.383	8917.68
276.451	8875.93
276.52	8873.77
276.588	8886.96
276.657	8888.31
276.725	8880.8
276.794	8878.92
276.863	8889.32
276.931	8865.44
277	8868.13
277.068	8876.85
277.137	8892.49
277.205	8891.48
277.274	8903.61
277.342	8907.61
277.411	8883.73
277.48	8863.27
277.548	8850.95
277.617	8852.54
277.685	8838.2
277.754	8835.41
277.822	8823.23
277.89	8833.82
277.959	8820.87
278.027	8796.42
278.096	8795.31
278.164	8820.35
278.233	8810.92
278.301	8800.57
278.37	8806.54
278.438	8796.09
278.507	8793.68
278.575	8765
278.643	8757.68
278.712	8746.71
278.78	8737.94
278.849	8750.7
278.917	8760.56
278.985	8759.65
279.054	8755.7
279.122	8774.71
279.191	8772.31
279.259	8775.19
279.327	8760.32
279.396	8781.02
279.464	8779.28
279.532	8778.32
279.601	8767.15
279.669	8771.43
279.737	8790.16
279.806	8795.93
279.874	8798.2
279.942	8798.48
280.011	8798.58
280.079	8811.34
280.147	8821.44
280.215	8823.9
280.284	8822.21
280.352	8811.05
280.42	8819.23
280.488	8813.74
280.557	8809.8
280.625	8815.76
280.693	8808.3
280.761	8810.18
280.83	8796.51
280.898	8813.79
280.966	8796.85
281.034	8764.41
281.102	8751.85
281.171	8741.55
281.239	8742.7
281.307	8740.29
281.375	8724.8
281.443	8754.26
281.512	8745.74
281.58	8751.32
281.648	8731.83
281.716	8727.11
281.784	8723.46
281.852	8723.41
281.92	8721.24
281.989	8733.13
282.057	8713.54
282.125	8763.51
282.193	8755.96
282.261	8749.51
282.329	8740.12
282.397	8738.24
282.465	8745.51
282.533	8758.55
282.601	8748.11
282.67	8730.73
282.738	8721.45
282.806	8739.78
282.874	8715.52
282.942	8721.25
283.01	8716.48
283.078	8728.08
283.146	8724.95
283.214	8733.09
283.282	8725.39
283.35	8737.9
283.418	8728.85
283.486	8732.84
283.554	8689.56
283.622	8693.65
283.69	8697.26
283.758	8691.01
283.826	8707.37
283.894	8719.36
283.962	8737.07
284.03	8754.69
284.098	8755.89
284.165	8749.63
284.233	8745.78
284.301	8740.92
284.369	8733.8
284.437	8724.36
284.505	8717.1
284.573	8735.82
284.641	8726.14
284.709	8733.12
284.777	8715.41
284.845	8721.67
284.912	8725.33
284.98	8728.89
285.048	8723.35
285.116	8728.41
285.184	8747.51
285.252	8741.69
285.319	8721.57
285.387	8706.84
285.455	8686.24
285.523	8696.78
285.591	8701.11
285.659	8700.34
285.726	8713.44
285.794	8689.57
285.862	8686.63
285.93	8684.71
285.997	8676.48
286.065	8668.97
286.133	8660.3
286.201	8655.64
286.269	8641.39
286.336	8635.85
286.404	8626.9
286.472	8637.59
286.539	8616.37
286.607	8594.95
286.675	8585.27
286.743	8597.59
286.81	8600.34
286.878	8616.46
286.946	8601.3
287.013	8598.12
287.081	8596.78
287.149	8583.64
287.216	8609.05
287.284	8600.43
287.352	8603.9
287.419	8597.01
287.487	8612.22
287.555	8614.15
287.622	8613.81
287.69	8616.65
287.758	8626.85
287.825	8624.01
287.893	8605.68
287.96	8614.96
288.028	8625.84
288.096	8639.51
288.163	8637.49
288.231	8617.03
288.298	8613.61
288.366	8629.55
288.433	8621.46
288.501	8609.53
288.569	8613.04
288.636	8603.27
288.704	8619.49
288.771	8623.1
288.839	8621.8
288.906	8621.99
288.974	8632.44
289.041	8625.51
289.109	8615.59
289.176	8625.85
289.244	8632.49
289.311	8645.53
289.379	8653.9
289.446	8656.07
289.514	8659.78
289.581	8666.61
289.649	8671.33
289.716	8672.58
289.783	8661.03
289.851	8686.97
289.918	8696.78
289.986	8705.98
290.053	8720.42
290.121	8712.43
290.188	8717.14
290.255	8749.92
290.323	8741.5
290.39	8739
290.458	8750.35
290.525	8767.3
290.592	8758.53
290.66	8756.51
290.727	8745.44
290.794	8762.15
290.862	8761.76
290.929	8755.6
290.996	8750.4
291.064	8763.25
291.131	8779.43
291.198	8792.33
291.266	8787.85
291.333	8787.37
291.4	8791.41
291.468	8803.25
291.535	8802.05
291.602	8806.82
291.669	8788.62
291.737	8794.11
291.804	8795.79
291.871	8812.69
291.938	8819.57
292.006	8848.07
292.073	8866.26
292.14	8880.46
292.207	8865.83
292.275	8870.07
292.342	8886.96
292.409	8916.33
292.476	8943
292.543	8934.91
292.611	8942.28
292.678	8960.81
292.745	8985.17
292.812	8999.46
292.879	8999.13
292.946	9008.85
293.014	9027.24
293.081	9033.64
293.148	9048.66
293.215	9057.91
293.282	9046.74
293.349	9057.57
293.416	9036.53
293.484	9048.18
293.551	9060.6
293.618	9086.21
293.685	9109.85
293.752	9099.94
293.819	9093.82
293.886	9077.74
293.953	9078.7
294.02	9088.72
294.087	9094.64
294.154	9089.34
294.221	9102.39
294.288	9100.18
294.356	9120.06
294.423	9117.75
294.49	9113.13
294.557	9120.45
294.624	9112.89
294.691	9135.37
294.758	9136.23
294.825	9146.01
294.892	9139.41
294.959	9144.42
295.026	9148.08
295.093	9138.3
295.16	9145.14
295.226	9150.53
295.293	9178.12
295.36	9189
295.427	9201.47
295.494	9215.92
295.561	9228.49
295.628	9250.35
295.695	9263.02
295.762	9257.67
295.829	9264.32
295.896	9285.26
295.963	9297.49
296.03	9315.4
296.096	9327.68
296.163	9334.76
296.23	9349.78
296.297	9362.3
296.364	9360.66
296.431	9366.68
296.498	9360.81
296.564	9382.57
296.631	9380.55
296.698	9360.13
296.765	9384.88
296.832	9372.51
296.899	9356.81
296.965	9372.03
297.032	9348.62
297.099	9369.95
297.166	9384.5
297.233	9386.23
297.299	9375.06
297.366	9375.25
297.433	9371.16
297.5	9386.14
297.566	9390.42
297.633	9396.06
297.7	9401.5
297.767	9402.03
297.833	9407.32
297.9	9414.16
297.967	9399.04
298.033	9415.94
298.1	9455.72
298.167	9442.19
298.234	9451.2
298.3	9467.04
298.367	9454.23
298.434	9464.78
298.5	9449.32
298.567	9444.31
298.634	9439.3
298.7	9461.06
298.767	9462.85
298.834	9477.87
298.9	9463.95
298.967	9458.85
299.033	9462.51
299.1	9478.3
299.167	9492.03
299.233	9483.7
299.3	9502.09
299.366	9519.72
299.433	9529.88
299.5	9497.99
299.566	9498.14
299.633	9516.15
299.699	9519.86
299.766	9520.39
299.832	9517.74
299.899	9525.93
299.965	9536.91
300.032	9532.57
300.099	9545.67
300.165	9551.79
300.232	9553.76
300.298	9550.35
300.365	9562.67
300.431	9559.93
300.498	9549.86
300.564	9555.5
300.631	9579.19
300.697	9593.11
300.763	9598.26
300.83	9594.36
300.896	9610.45
300.963	9621.76
301.029	9621.96
301.096	9633.28
301.162	9648.01
301.229	9647.58
301.295	9641.27
301.361	9648.3
301.428	9660.53
301.494	9642.66
301.561	9650.95
301.627	9652.34
301.693	9664.24
301.76	9666.46
301.826	9670.4
301.892	9686.59
301.959	9697.71
302.025	9686.59
302.092	9681.05
302.158	9683.46
302.224	9691.55
302.291	9683.26
302.357	9678.83
302.423	9672.14
302.49	9663.81
302.556	9676.67
302.622	9682.4
302.688	9695.06
302.755	9710.67
302.821	9718.04
302.887	9721.27
302.954	9715.87
303.02	9724.69
303.086	9735.23
303.152	9732.15
303.219	9720.59
303.285	9722.57
303.351	9729.12
303.417	9734.99
303.483	9721.08
303.55	9715.87
303.616	9717.27
303.682	9709.57
303.748	9702.25
303.815	9721.23
303.881	9730.47
303.947	9712.89
304.013	9710.29
304.079	9698.01
304.145	9673.69
304.212	9672.15
304.278	9671.04
304.344	9664.25
304.41	9649.32
304.476	9625.43
304.542	9623.6
304.608	9635.74
304.674	9614.74
304.741	9613.97
304.807	9612.91
304.873	9616.81
304.939	9630.97
305.005	9613.39
305.071	9621.77
305.137	9628.03
305.203	9596.43
305.269	9591.37
305.335	9602.93
305.401	9599.08
305.467	9597.01
305.533	9608.28
305.599	9617.72
305.666	9625.18
305.732	9626.77
305.798	9640.55
305.864	9668.87
305.93	9672.53
305.996	9669.54
306.062	9672.77
306.128	9661.35
306.194	9648.54
306.259	9649.55
306.325	9636.07
306.391	9644.21
306.457	9647.43
306.523	9652.3
306.589	9685.24
306.655	9676.23
306.721	9658.56
306.787	9648.11
306.853	9669.78
306.919	9651.96
306.985	9642.57
307.051	9638.43
307.117	9634.14
307.183	9624.37
307.248	9596.29
307.314	9605.49
307.38	9608.43
307.446	9614.98
307.512	9604.14
307.578	9610.79
307.644	9608.91
307.709	9610.74
307.775	9603.71
307.841	9602.89
307.907	9598.89
307.973	9574.66
308.039	9578.32
308.104	9592.67
308.17	9598.84
308.236	9576.92
308.302	9580.39
308.368	9565.7
308.433	9561.51
308.499	9558.96
308.565	9551.3
308.631	9559.83
308.696	9529.06
308.762	9514.17
308.828	9513.4
308.894	9493.9
308.959	9474.5
309.025	9461.11
309.091	9461.83
309.156	9454.61
309.222	9456.01
309.288	9443.77
309.354	9420.23
309.419	9413.77
309.485	9395.91
309.551	9391.72
309.616	9376.98
309.682	9368.22
309.748	9367.02
309.813	9360.51
309.879	9349.78
309.945	9337.4
310.01	9327.63
310.076	9329.94
310.141	9328.2
310.207	9311.01
310.273	9318.47
310.338	9323.58
310.404	9311.2
310.469	9301.91
310.535	9290.35
310.601	9265.46
310.666	9271.48
310.732	9282.7
310.797	9270.08
310.863	9256.6
310.928	9256.26
310.994	9265.22
311.059	9264.98
311.125	9257.85
311.191	9269.17
311.256	9252.03
311.322	9257.04
311.387	9238.6
311.453	9678.32
311.518	9646.65
311.584	9643.66
311.649	9652.52
311.715	9634.71
311.78	9635.72
311.846	9621.18
311.911	9631.48
311.976	9637.6
312.042	9625.32
312.107	9614.82
312.173	9611.6
312.238	9606.97
312.304	9596.09
312.369	9583
312.434	9577.31
312.5	9570.33
312.565	9537.83
312.631	9555.02
312.696	9546.55
312.761	9551.6
312.827	9103.35
312.892	9150.39
312.958	9147.55
313.023	9139.51
313.088	9145.57
313.154	9136.96
313.219	9128.29
313.284	9121.02
313.35	9109.8
313.415	9098.83
313.48	9086.5
313.546	9081.54
313.611	9093
313.676	9090.02
313.741	9080.53
313.807	9084.67
313.872	9087.95
313.937	9098.2
314.003	9100.22
314.068	9103.07
314.133	9102.34
314.198	9094.5
314.264	9070.32
314.329	9064.59
314.394	9058.19
314.459	9050.82
314.525	9071.57
314.59	9069.65
314.655	9053.57
314.72	9068.45
314.785	9073.45
314.851	9072.06
314.916	9056.17
314.981	9040.04
315.046	9028.39
315.111	9020.93
315.176	9006.49
315.242	9013.23
315.307	9007.21
315.372	8987.28
315.437	8975.68
315.502	8968.41
315.567	8977.65
315.632	8964.8
315.698	8959.45
315.763	8957.77
315.828	8954.98
315.893	8945.78
315.958	8931.73
316.023	8923.54
316.088	8901.45
316.153	8876.27
316.218	8874.15
316.283	8858.13
316.348	8837.77
316.413	8836.47
316.479	8815.06
316.544	8785.65
316.609	8757.68
316.674	8722.55
316.739	8689.97
316.804	8657.3
316.869	8627.12
316.934	8590.54
316.999	8556.91
317.064	8511.29
317.129	8459.03
317.194	8422.5
317.259	8377.26
317.324	8338.25
317.389	8297.69
317.454	8260.54
317.518	8223.5
317.583	8199.15
317.648	8180.96
317.713	8150.95
317.778	8085.28
317.843	8062.67
317.908	8020.35
317.973	7976.82
318.038	7950.12
318.103	7915.55
318.168	7886.74
318.233	7860.33
318.297	7813.01
318.362	7771.85
318.427	7730.16
318.492	7714.63
318.557	7666.7
318.622	7635.87
318.687	7611.4
318.751	7566.55
318.816	7531.55
318.881	7500.3
318.946	7445.78
319.011	7397.22
319.075	7357.42
319.14	7332.57
319.205	7289.17
319.27	7253.66
319.335	7212.09
319.399	7170.43
319.464	7142.8
319.529	7087.25
319.594	7044.05
319.658	7016.9
319.723	6980.05
319.788	6951.19
319.853	6900.06
319.917	6870.76
319.982	6813.31
320.047	6778.86
320.112	6755.33
320.176	6702.45
320.241	6674.4
320.306	6645.53
320.37	6606.78
320.435	6573.74
320.5	6545.31
320.564	6508.68
320.629	6473.64
320.694	6444.98
320.758	6405.95
320.823	6366.15
320.888	6343.36
320.952	6292
321.017	6246.16
321.082	6211.56
321.146	6179.55
321.211	6142.65
321.275	6100.33
321.34	6062.68
321.405	6013.88
321.469	5968.79
321.534	5932.53
321.598	5880.29
321.663	5845.02
321.727	5815.09
321.792	5769.67
321.857	5725.35
321.921	5682.72
321.986	5635.99
322.05	5574.96
322.115	5536.65
322.179	5487.38
322.244	5425.04
322.308	5395.99
322.373	5351.57
322.437	5306.85
322.502	5282.26
322.566	5237.55
322.631	5207.65
322.695	5166.12
322.76	5123.06
322.824	5090.91
322.889	5046.91
322.953	5003.95
323.018	4936.66
323.082	4869.39
323.146	4815.39
323.211	4760.91
323.275	4721.37
323.34	4679.98
323.404	4647.77
323.468	4601.82
323.533	4558.86
323.597	4523.66
323.662	4467.73
323.726	4433.85
323.79	4391.56
323.855	4325.09
323.919	4276.83
323.983	4227.99
324.048	4166.2
324.112	4327.59
324.177	4193.24
324.241	3978.35
324.305	3764.83
324.37	3557.59
324.434	3359.91
324.498	3317.28
324.562	3267.64
324.627	3205.44
324.691	3150.99
324.755	3084.59
324.82	3009.26
324.884	2934.58
324.948	2858.14
325.012	2767.03
325.077	2639.56
