Data from 20250703_urea_0.1M_MAYP1162681_15-31-05-474.txt Node
Date: Thu Jul 03 15:31:05 BST 2025
User: adleo
Spectrometer: MAYP116268
Trigger mode: 0
Integration Time (sec): 1.000000E0
Scans to average: 1
Electric dark correction enabled: true
Nonlinearity correction enabled: true
Boxcar width: 10
XAxis mode: Wavelengths
Number of Pixels in Spectrum: 2068
>>>>>Begin Spectral Data<<<<<
179.565	1284.31
179.642	1345.38
179.718	1389.91
179.795	1434.79
179.871	1469.62
179.948	1487.24
180.024	1508.72
180.101	1531.92
180.177	1548.63
180.254	1573.35
180.33	1598.67
180.407	1658.22
180.483	1759.61
180.56	1857.54
180.636	1945.99
180.712	1932.15
180.789	1942.65
180.865	1952.83
180.942	1962.48
181.018	1972.79
181.095	1987.92
181.171	1992.91
181.248	1992.53
181.324	2008.18
181.4	2015.32
181.477	2026.97
181.553	2043.47
181.63	2064.77
181.706	2084.52
181.782	2093.22
181.859	2092.69
181.935	2096.21
182.011	2091.89
182.088	2108.87
182.164	2130.28
182.24	2144.88
182.317	2152.54
182.393	2152.59
182.469	2169.05
182.546	2180.61
182.622	2184.51
182.698	2179.46
182.775	2191.55
182.851	2209.34
182.927	2202.68
183.003	2194.55
183.08	2187.98
183.156	2194.26
183.232	2189.65
183.308	2175.09
183.385	2184.98
183.461	2202.63
183.537	2204.3
183.613	2217.76
183.69	2206.68
183.766	2192.68
183.842	2200.15
183.918	2206.53
183.995	2219.61
184.071	2222.52
184.147	2218.8
184.223	2207.63
184.299	2221.14
184.375	2213.72
184.452	2219.77
184.528	2270.83
184.604	2282.96
184.68	2294.33
184.756	2304.28
184.832	2311.28
184.908	2316.65
184.985	2312.99
185.061	2295.29
185.137	2305.85
185.213	2292.39
185.289	2293.44
185.365	2285.73
185.441	2283.59
185.517	2300.25
185.593	2296.16
185.669	2293.3
185.745	2304.44
185.822	2321.28
185.898	2311.05
185.974	2319.61
186.05	2308.09
186.126	2274.16
186.202	2270.02
186.278	2267.5
186.354	2258.07
186.43	2266.59
186.506	2265.83
186.582	2268.5
186.658	2276.87
186.734	2255.93
186.81	2260.4
186.886	2267.97
186.962	2283.39
187.038	2280.67
187.114	2269.29
187.19	2275.77
187.266	2265.97
187.341	2265.35
187.417	2258.54
187.493	2260.02
187.569	2263.63
187.645	2255.74
187.721	2241.55
187.797	2247.69
187.873	2252.59
187.949	2245.32
188.025	2233.6
188.101	2233.89
188.176	2236.17
188.252	2232.08
188.328	2237.98
188.404	2236.98
188.48	2229.46
188.556	2221.09
188.632	2220.14
188.707	2220.23
188.783	2218.28
188.859	2214.95
188.935	2203.77
189.011	2209.9
189.086	2201.39
189.162	2192.39
189.238	2192.68
189.314	2191.73
189.39	2183.69
189.465	2173.46
189.541	2187.26
189.617	2174.7
189.693	2173.75
189.768	2178.41
189.844	2203.31
189.92	2195.51
189.996	2205.21
190.071	2215.3
190.147	2212.87
190.223	2222.92
190.298	2214.82
190.374	2202.41
190.45	2215.11
190.526	2225.15
190.601	2217.68
190.677	2222.48
190.753	2251.29
190.828	2257.38
190.904	2274.23
190.98	2291.74
191.055	2306.59
191.131	2298.12
191.207	2321.25
191.282	2329.48
191.358	2318.72
191.433	2304.06
191.509	2319.23
191.585	2316.14
191.66	2320.66
191.736	2331.51
191.811	2323.14
191.887	2342.37
191.963	2365.83
192.038	2372.88
192.114	2372.59
192.189	2379.92
192.265	2373.92
192.34	2352.02
192.416	2348.64
192.491	2341.07
192.567	2345.74
192.642	2345.4
192.718	2350.3
192.793	2337.07
192.869	2335.55
192.944	2337.79
193.02	2346.88
193.095	2347.97
193.171	2354.21
193.246	2352.83
193.322	2347.35
193.397	2347.26
193.473	2329.26
193.548	2312.08
193.624	2315.84
193.699	2315.74
193.775	2335.08
193.85	2337.12
193.925	2345.21
194.001	2344.69
194.076	2339.88
194.152	2327.36
194.227	2320.55
194.302	2307.76
194.378	2311.33
194.453	2304.29
194.529	2316.99
194.604	2299.05
194.679	2295.38
194.755	2275.93
194.83	2286.31
194.905	2282.69
194.981	2289.88
195.056	2282.93
195.131	2287.59
195.207	2288.02
195.282	2277.32
195.357	2256.18
195.433	2271.74
195.508	2258.6
195.583	2265.88
195.659	2279.54
195.734	2286.78
195.809	2287.3
195.884	2298.62
195.96	2299.62
196.035	2317.04
196.11	2313.61
196.185	2330.75
196.261	2333.51
196.336	2364.68
196.411	2349.3
196.486	2355.35
196.561	2352.25
196.637	2365.2
196.712	2383.62
196.787	2385.24
196.862	2399.42
196.937	2409.94
197.013	2414.99
197.088	2427.22
197.163	2451.7
197.238	2471.33
197.313	2469.14
197.388	2483.19
197.464	2512.57
197.539	2523.33
197.614	2516.53
197.689	2529.29
197.764	2542.72
197.839	2564.01
197.914	2558.91
197.989	2585.34
198.065	2600.44
198.14	2653.58
198.215	2677.59
198.29	2690.36
198.365	2702.6
198.44	2717.32
198.515	2746.72
198.59	2765.64
198.665	2793.61
198.74	2801.33
198.815	2801.14
198.89	2826.77
198.965	2860.38
199.04	2859.43
199.115	2877.82
199.19	2927.29
199.265	2931.67
199.34	2942.16
199.415	2979.31
199.49	3001.62
199.565	3009.72
199.64	3035.51
199.715	3031.69
199.79	3043.18
199.865	3047.9
199.94	3047.9
200.015	3079.76
200.09	3085.72
200.165	3091.3
200.24	3099.93
200.315	3142.79
200.39	3157.82
200.464	3165.21
200.539	3167.26
200.614	3183.71
200.689	3211.14
200.764	3212.38
200.839	3233.55
200.914	3242.04
200.989	3230.63
201.063	3249.71
201.138	3234.41
201.213	3232.36
201.288	3211.85
201.363	3218.29
201.438	3221.73
201.512	3238.46
201.587	3220.48
201.662	3221.57
201.737	3238.08
201.812	3243.52
201.886	3208.53
201.961	3222.65
202.036	3210.11
202.111	3203.58
202.186	3173.31
202.26	3152.84
202.335	3133.42
202.41	3126.22
202.485	3109.44
202.559	3091.94
202.634	3062.13
202.709	3074.76
202.784	3061.27
202.858	3065.37
202.933	3049.01
203.008	3049.06
203.082	3034.13
203.157	3043.15
203.232	3009.12
203.306	2994.52
203.381	2968.53
203.456	2954.27
203.53	2940.24
203.605	2932.9
203.68	2926.27
203.754	2935.28
203.829	2933.99
203.904	2930.41
203.978	2940.33
204.053	2962.13
204.127	2969.61
204.202	2993.4
204.277	3001.18
204.351	3023.74
204.426	3046.92
204.5	3071.58
204.575	3065.95
204.65	3113.39
204.724	3145.81
204.799	3193.39
204.873	3232.15
204.948	3279.2
205.022	3312.64
205.097	3355.39
205.171	3426.27
205.246	3488.36
205.32	3547.87
205.395	3610.82
205.469	3666.67
205.544	3735.49
205.618	3791.01
205.693	3879.13
205.767	3943.5
205.842	4049.22
205.916	4126.43
205.991	4203.9
206.065	4298.13
206.14	4408.81
206.214	4501.77
206.289	4587.47
206.363	4704.21
206.438	4807.6
206.512	4924.79
206.586	5060.11
206.661	5184.58
206.735	5273.68
206.81	5400.02
206.884	5538.34
206.958	5651.81
207.033	5801.01
207.107	5944.1
207.181	6109.89
207.256	6239.9
207.33	6401.63
207.405	6555.2
207.479	6722.02
207.553	6881.08
207.628	7010.9
207.702	7172.46
207.776	7315.62
207.851	7473.83
207.925	7649.72
207.999	7807.09
208.073	7974.36
208.148	8144.25
208.222	8292.57
208.296	8503.55
208.371	8684.09
208.445	8873.87
208.519	9077.21
208.593	9263.07
208.668	9433.53
208.742	9615.09
208.816	9796.34
208.89	9988.32
208.965	10167.97
209.039	10353.1
209.113	10549.32
209.187	10751.29
209.261	10931.38
209.336	11135.68
209.41	11335.7
209.484	11512.71
209.558	11720.08
209.632	11914.93
209.707	12111.77
209.781	12317.81
209.855	12510.37
209.929	12710.41
210.003	12888.09
210.077	13065.77
210.151	13292.56
210.226	13508.03
210.3	13710.63
210.374	13905.57
210.448	14078.09
210.522	14260.06
210.596	14443.48
210.67	14626.13
210.744	14844.24
210.818	15041.68
210.892	15233.62
210.966	15410.19
211.041	15596.44
211.115	15758.39
211.189	15936.59
211.263	16106.83
211.337	16279.52
211.411	16458.67
211.485	16609.48
211.559	16780.29
211.633	16939.49
211.707	17067.68
211.781	17238.38
211.855	17353.47
211.929	17497.38
212.003	17631.45
212.077	17790.01
212.151	17950.2
212.225	18108.51
212.299	18240.84
212.373	18365.99
212.447	18497.94
212.52	18651.09
212.594	18786.17
212.668	18934.4
212.742	19062.01
212.816	19189.33
212.89	19303.16
212.964	19420.65
213.038	19553.12
213.112	19692.3
213.186	19825.36
213.26	19912.24
213.333	19978.03
213.407	20109.64
213.481	20224.91
213.555	20350.5
213.629	20441.63
213.703	20530.31
213.777	20636
213.85	20732.54
213.924	20885.7
213.998	20999.55
214.072	21100.91
214.146	21187.9
214.219	21295.97
214.293	21384.79
214.367	21491.94
214.441	21613.84
214.515	21704.03
214.588	21777.68
214.662	21835.62
214.736	21920.84
214.81	22027.7
214.883	22122.47
214.957	22191.06
215.031	22269.2
215.105	22338.23
215.178	22409
215.252	22490.71
215.326	22543.4
215.4	22598.02
215.473	22624.83
215.547	22674.54
215.621	22736.49
215.694	22823.14
215.768	22856.6
215.842	22916.33
215.915	22967.49
215.989	23003.61
216.063	23048.79
216.136	23110.7
216.21	23167.94
216.284	23235.06
216.357	23303.59
216.431	23363.62
216.504	23439.38
216.578	23526.67
216.652	23593.12
216.725	23653.83
216.799	23713.1
216.873	23762.29
216.946	23821.56
217.02	23865.49
217.093	23918.02
217.167	23945.8
217.24	23967.21
217.314	24021.61
217.387	24059.96
217.461	24093.38
217.535	24153.92
217.608	24192.94
217.682	24239.78
217.755	24291.77
217.829	24317.53
217.902	24347.83
217.976	24389.6
218.049	24419.03
218.123	24444.79
218.196	24488.35
218.27	24529.51
218.343	24560.62
218.417	24606.21
218.49	24643.17
218.563	24699.71
218.637	24736.13
218.71	24798.23
218.784	24863.32
218.857	24908.96
218.931	24960.49
219.004	24992.76
219.077	25016.7
219.151	25049.65
219.224	25069.92
219.298	25108.61
219.371	25160.3
219.444	25178.63
219.518	25211.73
219.591	25240.83
219.665	25297.78
219.738	25326.01
219.811	25334.31
219.885	25365.68
219.958	25397.34
220.031	25417.32
220.105	25442.8
220.178	25468.67
220.251	25473.73
220.325	25492.32
220.398	25515.92
220.471	25537.44
220.544	25584.06
220.618	25600.76
220.691	25626
220.764	25644.73
220.838	25660.37
220.911	25671.66
220.984	25711.77
221.057	25722.24
221.131	25730.83
221.204	25711.23
221.277	25743.52
221.35	25799.37
221.424	25801.74
221.497	25811.05
221.57	25837.89
221.643	25853.48
221.716	25864.58
221.79	25875.59
221.863	25879.45
221.936	25885
222.009	25893.3
222.082	25890.89
222.155	25901.02
222.229	25933.08
222.302	25957.5
222.375	25962.86
222.448	25968.6
222.521	25974.88
222.594	25977.2
222.667	25974.69
222.74	25984.49
222.814	25980.48
222.887	25973.67
222.96	25997.08
223.033	26002.92
223.106	26000.08
223.179	26004.61
223.252	26014.46
223.325	26016.25
223.398	26021.08
223.471	26015.28
223.544	26008.62
223.617	26005.92
223.69	25995.98
223.763	25967.69
223.837	25949.3
223.91	25950.99
223.983	25925.07
224.056	25899.05
224.129	25899.24
224.202	25911.36
224.275	25893.16
224.348	25866.13
224.42	25841.36
224.493	25804.53
224.566	25793.09
224.639	25790.05
224.712	25766.11
224.785	25739.47
224.858	25721.08
224.931	25692.89
225.004	25668.76
225.077	25651.86
225.15	25610.99
225.223	25600.56
225.296	25612.53
225.369	25583.86
225.442	25554.57
225.514	25544.38
225.587	25529.13
225.66	25501.38
225.733	25477.88
225.806	25467.21
225.879	25447.86
225.952	25408.44
226.025	25395.16
226.097	25382.52
226.17	25353.51
226.243	25314.91
226.316	25286
226.389	25260.86
226.461	25241.17
226.534	25229.16
226.607	25200.73
226.68	25202.42
226.753	25180.71
226.825	25127.19
226.898	25122.41
226.971	25101.28
227.044	25073.58
227.117	25061.95
227.189	25051.96
227.262	25037.77
227.335	25019.63
227.407	24997.63
227.48	24982.33
227.553	24960.14
227.626	24927.28
227.698	24901.56
227.771	24879.61
227.844	24850.18
227.916	24839.81
227.989	24808.01
228.062	24773.08
228.134	24766.57
228.207	24740.42
228.28	24696.47
228.352	24678.96
228.425	24655.65
228.498	24640.99
228.57	24608.81
228.643	24587.1
228.716	24552.7
228.788	24507.31
228.861	24462.88
228.934	24447.92
229.006	24419.65
229.079	24391.14
229.151	24359.06
229.224	24319.03
229.296	24310.68
229.369	24317.87
229.442	24305.42
229.514	24269.2
229.587	24254.58
229.659	24213.53
229.732	24186.04
229.804	24194.67
229.877	24180.25
229.949	24154.88
230.022	24149.04
230.094	24126.57
230.167	24095.02
230.239	24061.79
230.312	24036.08
230.384	24038.16
230.457	24016.64
230.529	24003.86
230.602	23983.41
230.674	23962.58
230.747	23950.52
230.819	23937.16
230.892	23887.43
230.964	23853.72
231.037	23842.05
231.109	23818.75
231.181	23807.23
231.254	23775.97
231.326	23736.62
231.399	23710.57
231.471	23671.22
231.544	23600.38
231.616	23581.91
231.688	23560.4
231.761	23524.91
231.833	23490.05
231.905	23426.87
231.978	23389.69
232.05	23353.24
232.122	23321.6
232.195	23281.53
232.267	23253.42
232.339	23201.34
232.412	23180.61
232.484	23136.19
232.556	23091.21
232.629	23070.76
232.701	23029.58
232.773	22993.37
232.846	22946.75
232.918	22910.97
232.99	22877.56
233.062	22862.42
233.135	22834.21
233.207	22790.09
233.279	22766.9
233.351	22744.87
233.424	22717.06
233.496	22672.8
233.568	22655.25
233.64	22604.67
233.713	22569.53
233.785	22535.49
233.857	22502.47
233.929	22444.91
234.001	22433.05
234.074	22415.6
234.146	22355.72
234.218	22326.5
234.29	22289.92
234.362	22252.75
234.434	22202.71
234.507	22165.93
234.579	22116.52
234.651	22071.4
234.723	22036.16
234.795	21997.21
234.867	21964.33
234.939	21950.02
235.012	21909.29
235.084	21867.01
235.156	21840.31
235.228	21801.5
235.3	21764.72
235.372	21725.78
235.444	21702.88
235.516	21628.7
235.588	21590.09
235.66	21566.13
235.732	21518.03
235.804	21540.15
235.876	21509.55
235.948	21489.79
236.02	21449.97
236.092	21418.65
236.164	21379.27
236.236	21333.91
236.308	21297.09
236.38	21253.81
236.452	21205.85
236.524	21177.75
236.596	21157.8
236.668	21123.58
236.74	21084.93
236.812	21050.13
236.884	21029.31
236.956	20990.94
237.028	20963.18
237.1	20909.59
237.172	20878.07
237.244	20867.71
237.316	20788.71
237.388	20742.25
237.46	20683.89
237.532	20657.67
237.604	20601.62
237.675	20581.86
237.747	20557.04
237.819	20509.53
237.891	20475.69
237.963	20418.78
238.035	20372.66
238.107	20294.49
238.178	20270.54
238.25	20231.84
238.322	20211.26
238.394	20141.77
238.466	20092.95
238.538	20055.31
238.609	20023.32
238.681	19960.91
238.753	19899.22
238.825	19860.28
238.897	19827.46
238.968	19810.36
239.04	19763.95
239.112	19756.43
239.184	19699.33
239.255	19657.74
239.327	19619.52
239.399	19572.3
239.471	19543.96
239.542	19515.53
239.614	19491.72
239.686	19425.65
239.758	19397.51
239.829	19341.32
239.901	19326.09
239.973	19295.06
240.044	19250.14
240.116	19214.2
240.188	19178.68
240.259	19140.22
240.331	19086.01
240.403	19055.02
240.474	18999.08
240.546	18944.24
240.618	18878.7
240.689	18843.47
240.761	18801.5
240.833	18786.61
240.904	18751.28
240.976	18707.14
241.048	18666.08
241.119	18643.29
241.191	18614.91
241.262	18590.81
241.334	18557.22
241.405	18514.77
241.477	18464.6
241.549	18432.51
241.62	18389.91
241.692	18361.76
241.763	18328.9
241.835	18302.25
241.906	18267.17
241.978	18216.81
242.049	18197.05
242.121	18177.29
242.192	18152.81
242.264	18098.26
242.335	18033.54
242.407	18003.9
242.478	17966.36
242.55	17936.14
242.621	17882.6
242.693	17831.57
242.764	17784.97
242.836	17742.56
242.907	17708.39
242.979	17687.57
243.05	17657.02
243.122	17628.87
243.193	17592.2
243.264	17533.84
243.336	17496.34
243.407	17461.36
243.479	17439.96
243.55	17413.31
243.622	17382.66
243.693	17338.51
243.764	17323.67
243.836	17278.61
243.907	17231.14
243.978	17192.1
244.05	17157.83
244.121	17103.95
244.192	17091.28
244.264	17041.88
244.335	17003.42
244.407	16958.65
244.478	16918.21
244.549	16878.74
244.62	16828.04
244.692	16784.57
244.763	16761.92
244.834	16720.13
244.906	16678.3
244.977	16654.1
245.048	16625.62
245.119	16577.28
245.191	16530.82
245.262	16471.15
245.333	16460.21
245.405	16434.42
245.476	16408.3
245.547	16373.5
245.618	16345.5
245.689	16307.52
245.761	16279.81
245.832	16238.84
245.903	16206.79
245.974	16185.77
246.045	16146.93
246.117	16135.36
246.188	16096.46
246.259	16052.21
246.33	16016.6
246.401	15977.75
246.473	15926.61
246.544	15888.87
246.615	15866.6
246.686	15831.85
246.757	15821.97
246.828	15778.06
246.899	15758.63
246.97	15710.34
247.042	15668.31
247.113	15645.75
247.184	15638.33
247.255	15605.21
247.326	15575.76
247.397	15539.37
247.468	15502.88
247.539	15473.91
247.61	15418.77
247.681	15389.51
247.752	15376.74
247.823	15333.36
247.894	15310.65
247.965	15270.69
248.037	15233.48
248.108	15187.01
248.179	15160.98
248.25	15133.75
248.321	15104.44
248.392	15060.72
248.463	15056.96
248.534	15023.22
248.605	15002.06
248.675	14959.5
248.746	14929.27
248.817	14913.99
248.888	14892.83
248.959	14843.76
249.03	14822.65
249.101	14800.81
249.172	14772.95
249.243	14717.42
249.314	14708.16
249.385	14679.24
249.456	14660.34
249.527	14629.97
249.598	14606.74
249.669	14572.61
249.739	14531.97
249.81	14512.98
249.881	14469.55
249.952	14437.73
250.023	14407.51
250.094	14366.58
250.165	14322.28
250.235	14296.01
250.306	14266.03
250.377	14223.12
250.448	14202.11
250.519	14155.92
250.59	14148.93
250.66	14116.3
250.731	14111.67
250.802	14078.51
250.873	14048.86
250.944	14018.34
251.014	13978.19
251.085	13977.85
251.156	13955.44
251.227	13952.74
251.297	13947.53
251.368	13930.18
251.439	13913.25
251.51	13911.13
251.58	13879.51
251.651	13862.64
251.722	13846.34
251.792	13797.66
251.863	13775.48
251.934	13770.03
252.005	13770.27
252.075	13737.06
252.146	13726.74
252.217	13715.13
252.287	13710.31
252.358	13684.27
252.429	13685.82
252.499	13662.92
252.57	13635.63
252.641	13631.92
252.711	13604.4
252.782	13554.74
252.852	13574.03
252.923	13555.18
252.994	13529.48
253.064	13521.91
253.135	13481.66
253.205	13453.9
253.276	13452.06
253.347	13444.74
253.417	13406.89
253.488	13378.02
253.558	13356.66
253.629	13329.81
253.699	13300.79
253.77	13281.89
253.841	13262.95
253.911	13244
253.982	13219.61
254.052	13209.34
254.123	13180.42
254.193	13157.28
254.264	13177.72
254.334	13130.67
254.405	13092.68
254.475	13056
254.546	13028.86
254.616	13023.85
254.687	13005
254.757	12986.29
254.827	12964.21
254.898	12945.94
254.968	12928.69
255.039	12896.39
255.109	12889.98
255.18	12857.15
255.25	12805.86
255.321	12781.42
255.391	12740.64
255.461	12747.34
255.532	12696.82
255.602	12672.86
255.673	12624.8
255.743	12591.01
255.813	12546.8
255.884	12532.63
255.954	12526.99
256.024	12526.7
256.095	12503.9
256.165	12470.45
256.235	12456.61
256.306	12429.04
256.376	12418.44
256.446	12401.85
256.517	12389.13
256.587	12367.68
256.657	12356.25
256.728	12345.36
256.798	12339.53
256.868	12315.86
256.938	12285.35
257.009	12279.51
257.079	12267.46
257.149	12281.97
257.219	12236.61
257.29	12220.42
257.36	12180.12
257.43	12163.68
257.5	12121.26
257.571	12102.08
257.641	12090.66
257.711	12061.88
257.781	12048.09
257.852	12038.36
257.922	12001.63
257.992	11981.09
258.062	11961.14
258.132	11953.67
258.202	11931.64
258.273	11905.76
258.343	11908.45
258.413	11877.46
258.483	11854.47
258.553	11821.16
258.623	11792.05
258.693	11781.3
258.764	11778.94
258.834	11783.28
258.904	11764.09
258.974	11735.37
259.044	11709.1
259.114	11693.1
259.184	11677.68
259.254	11651.65
259.324	11614.39
259.394	11600.32
259.464	11600.61
259.535	11587.3
259.605	11559.59
259.675	11529.76
259.745	11515.01
259.815	11479.78
259.885	11455.05
259.955	11466.96
260.025	11448.21
260.095	11431.05
260.165	11418.57
260.235	11414.09
260.305	11386.33
260.375	11355.05
260.445	11360.21
260.515	11365.89
260.585	11365.36
260.655	11343.43
260.725	11341.94
260.795	11326.42
260.865	11330.42
260.934	11303.58
261.004	11288.78
261.074	11264.25
261.144	11268.73
261.214	11263.04
261.284	11241.02
261.354	11240.83
261.424	11213.07
261.494	11211.23
261.564	11193.89
261.634	11188.58
261.703	11152.01
261.773	11138.27
261.843	11137.21
261.913	11119.33
261.983	11082.47
262.053	11069.07
262.123	11049.07
262.192	11017.51
262.262	11013.46
262.332	10978.62
262.402	10961.7
262.472	10944.98
262.541	10919.73
262.611	10914.24
262.681	10883.01
262.751	10882.1
262.821	10866.68
262.89	10835.78
262.96	10822.92
263.03	10827.5
263.1	10814.24
263.169	10808.12
263.239	10808.46
263.309	10812.32
263.379	10807.16
263.448	10790.92
263.518	10780.85
263.588	10770.68
263.657	10780.47
263.727	10773.48
263.797	10761.29
263.867	10745.19
263.936	10714.5
264.006	10714.55
264.076	10694.89
264.145	10682.22
264.215	10655.81
264.285	10649.36
264.354	10616.6
264.424	10594.05
264.494	10559.79
264.563	10529.77
264.633	10528.37
264.702	10506.5
264.772	10460.43
264.842	10439.13
264.911	10437.3
264.981	10402.85
265.05	10391.67
265.12	10367.29
265.19	10354.86
265.259	10348.65
265.329	10345.18
265.398	10342.29
265.468	10352.69
265.537	10335.69
265.607	10323.16
265.676	10321.43
265.746	10307.74
265.815	10305.48
265.885	10294.11
265.955	10272.82
266.024	10262.03
266.094	10228.35
266.163	10236.88
266.232	10247.29
266.302	10229.9
266.371	10213.71
266.441	10204.27
266.51	10195.31
266.58	10179.99
266.649	10155.22
266.719	10153.49
266.788	10151.13
266.858	10149.73
266.927	10108.88
266.996	10099.58
267.066	10097.17
267.135	10074.15
267.205	10072.17
267.274	10068.18
267.343	10070.1
267.413	10054.02
267.482	10058.06
267.552	10063.36
267.621	10029.49
267.69	9992.55
267.76	9986.19
267.829	9974.44
267.898	9959.21
267.968	9941.1
268.037	9936.19
268.106	9930.7
268.176	9904.78
268.245	9880.22
268.314	9862.73
268.384	9869.95
268.453	9858.2
268.522	9844.57
268.592	9844.57
268.661	9824.77
268.73	9811.91
268.799	9783.59
268.869	9792.16
268.938	9757.72
269.007	9730.9
269.076	9718.23
269.146	9721.12
269.215	9712.02
269.284	9727.48
269.353	9711.88
269.422	9693
269.492	9672.82
269.561	9639.3
269.63	9637.85
269.699	9624.95
269.768	9614.98
269.838	9607.32
269.907	9602.17
269.976	9581.79
270.045	9547.75
270.114	9538.31
270.183	9523.77
270.253	9526.22
270.322	9497.67
270.391	9486.93
270.46	9494.78
270.529	9494.39
270.598	9492.42
270.667	9477.25
270.736	9450.28
270.806	9447.24
270.875	9451.14
270.944	9440.21
271.013	9468.24
271.082	9456.63
271.151	9452.4
271.22	9422.98
271.289	9407.76
271.358	9392.3
271.427	9389.7
271.496	9387.82
271.565	9377.85
271.634	9373.18
271.703	9367.98
271.772	9378.14
271.841	9374.34
271.91	9347.04
271.979	9335.91
272.048	9311.64
272.117	9313.18
272.186	9292.91
272.255	9294.07
272.324	9291.08
272.393	9282.22
272.462	9255.78
272.531	9251.16
272.6	9240.13
272.669	9255.88
272.738	9245.04
272.807	9243.26
272.876	9221.74
272.945	9248.47
273.013	9249.24
273.082	9251.45
273.151	9230.84
273.22	9223.43
273.289	9207.73
273.358	9224.25
273.427	9213.42
273.496	9209.13
273.564	9206.39
273.633	9217.99
273.702	9196.04
273.771	9188.43
273.84	9189.39
273.909	9189.54
273.977	9184.67
274.046	9177.5
274.115	9171.29
274.184	9154.44
274.253	9143.12
274.322	9153.38
274.39	9120.01
274.459	9104.51
274.528	9072.78
274.597	9066.09
274.665	9055.88
274.734	9071.19
274.803	9054.63
274.872	9050.25
274.94	9038.02
275.009	9098.09
275.078	9073.87
275.147	9072.96
275.215	9065.64
275.284	9072.86
275.353	9062.6
275.421	9033.96
275.49	9042.44
275.559	9033
275.627	9022.12
275.696	9011.48
275.765	9010.47
275.833	9004.02
275.902	9001.38
275.971	9014.61
276.039	9029.87
276.108	9036.81
276.177	9030.02
276.245	9018.13
276.314	9014.37
276.383	9021.21
276.451	8947.33
276.52	8950.21
276.588	8962.68
276.657	8965.52
276.725	8950.65
276.794	8951.61
276.863	8964.03
276.931	8943.86
277	8950.6
277.068	8959.98
277.137	8982.37
277.205	8973.46
277.274	8988.63
277.342	8999.7
277.411	8977.8
277.48	8961.29
277.548	8953.01
277.617	8950.31
277.685	8948.87
277.754	8951.13
277.822	8937.55
277.89	8958.07
277.959	8957.15
278.027	8939.87
278.096	8932.74
278.164	8963.08
278.233	8953.54
278.301	8944.4
278.37	8944.78
278.438	8926.97
278.507	8929.62
278.575	8899.44
278.643	8898.18
278.712	8887.26
278.78	8873.78
278.849	8889.66
278.917	8896.11
278.985	8887.45
279.054	8885.09
279.122	8891.63
279.191	8885.71
279.259	8885.04
279.327	8857.74
279.396	8873.96
279.464	8862.12
279.532	8867.13
279.601	8860.53
279.669	8856.97
279.737	8871.65
279.806	8878.54
279.874	8895.1
279.942	8893.41
280.011	8887.2
280.079	8894.42
280.147	8904.34
280.215	8905.25
280.284	8900.1
280.352	8888.5
280.42	8893.37
280.488	8890.91
280.557	8888.02
280.625	8890.28
280.693	8895.19
280.761	8896.45
280.83	8876.23
280.898	8894.04
280.966	8871.56
281.034	8836.8
281.102	8815.96
281.171	8811.34
281.239	8819.67
281.307	8806.48
281.375	8793.77
281.443	8825.25
281.512	8819.29
281.58	8822.85
281.648	8806.92
281.716	8799.55
281.784	8800.23
281.852	8793.54
281.92	8789.93
281.989	8796.95
282.057	8781.65
282.125	8833.22
282.193	8829.51
282.261	8829.41
282.329	8821.81
282.397	8830.09
282.465	8834.42
282.533	8854.34
282.601	8840.19
282.67	8816.17
282.738	8804.14
282.806	8818.24
282.874	8801.82
282.942	8804.28
283.01	8803.36
283.078	8810.29
283.146	8811.45
283.214	8823.87
283.282	8829.74
283.35	8840.76
283.418	8835.13
283.486	8838.5
283.554	8778.46
283.622	8782.41
283.69	8776.82
283.758	8776.01
283.826	8776.78
283.894	8783.61
283.962	8801.9
284.03	8815.38
284.098	8816.73
284.165	8816.2
284.233	8812.54
284.301	8810.23
284.369	8804.17
284.437	8789.53
284.505	8786.07
284.573	8796.56
284.641	8780.53
284.709	8784.38
284.777	8764.98
284.845	8773.6
284.912	8782.07
284.98	8796.41
285.048	8787.51
285.116	8798.15
285.184	8805.99
285.252	8803.11
285.319	8784.72
285.387	8775.81
285.455	8760.27
285.523	8766.48
285.591	8763.2
285.659	8767.68
285.726	8774.61
285.794	8765.42
285.862	8762.24
285.93	8762.87
285.997	8767.01
286.065	8761.67
286.133	8753.68
286.201	8754.4
286.269	8736.49
286.336	8725.71
286.404	8709.59
286.472	8721.62
286.539	8694.14
286.607	8677.73
286.675	8681.24
286.743	8691.01
286.81	8685.33
286.878	8698.61
286.946	8689.23
287.013	8686.49
287.081	8682.2
287.149	8666.94
287.216	8687.21
287.284	8681.82
287.352	8682.3
287.419	8673.59
287.487	8692.98
287.555	8697.22
287.622	8695.97
287.69	8703.62
287.758	8719.17
287.825	8719.79
287.893	8704.1
287.96	8716.76
288.028	8731.97
288.096	8733.03
288.163	8734.76
288.231	8723.88
288.298	8723.98
288.366	8734.61
288.433	8736.68
288.501	8732.88
288.569	8737.55
288.636	8730.14
288.704	8750.93
288.771	8761.57
288.839	8755.98
288.906	8750.21
288.974	8764.41
289.041	8762.63
289.109	8753.72
289.176	8761.38
289.244	8767.44
289.311	8780.34
289.379	8788.28
289.446	8789.1
289.514	8790.4
289.581	8794.49
289.649	8798.82
289.716	8796.66
289.783	8792.76
289.851	8812.3
289.918	8808.55
289.986	8817.11
290.053	8816.78
290.121	8809.12
290.188	8810.04
290.255	8837.72
290.323	8836.8
290.39	8820.82
290.458	8830.88
290.525	8840.07
290.592	8830.78
290.66	8831.36
290.727	8828.76
290.794	8844.07
290.862	8841.85
290.929	8847.82
290.996	8845.46
291.064	8851.72
291.131	8864.48
291.198	8882.91
291.266	8881.76
291.333	8886.33
291.4	8896.92
291.468	8915.41
291.535	8908.04
291.602	8910.11
291.669	8900.2
291.737	8901.88
291.804	8905.92
291.871	8922.1
291.938	8935.39
292.006	8966.92
292.073	8984.97
292.14	8991.57
292.207	8983.19
292.275	8988.1
292.342	8999.61
292.409	9031.96
292.476	9064.03
292.543	9053.63
292.611	9045.64
292.678	9062.92
292.745	9086.17
292.812	9091.08
292.879	9081.55
292.946	9094.74
293.014	9104.13
293.081	9120.3
293.148	9132.14
293.215	9147.5
293.282	9136.77
293.349	9137.25
293.416	9115.44
293.484	9126.46
293.551	9139.56
293.618	9154.77
293.685	9174.61
293.752	9162.14
293.819	9157.13
293.886	9141.43
293.953	9158.23
294.02	9171.14
294.087	9179.61
294.154	9170.18
294.221	9187.56
294.288	9191.31
294.356	9205.76
294.423	9216.88
294.49	9202.34
294.557	9215.1
294.624	9204.46
294.691	9229.54
294.758	9234.89
294.825	9246.78
294.892	9239.46
294.959	9239.37
295.026	9247.02
295.093	9242.16
295.16	9246.54
295.226	9249.14
295.293	9273.36
295.36	9277.74
295.427	9290.55
295.494	9301.48
295.561	9321.75
295.628	9340.49
295.695	9356.91
295.762	9368.03
295.829	9380.31
295.896	9395.62
295.963	9406.12
296.03	9415.94
296.096	9419.46
296.163	9426.87
296.23	9442.91
296.297	9454.13
296.364	9459.96
296.431	9463.18
296.498	9459.91
296.564	9485.96
296.631	9488.27
296.698	9478.83
296.765	9497.18
296.832	9487.6
296.899	9471.99
296.965	9488.85
297.032	9473.34
297.099	9494.77
297.166	9492.75
297.233	9485.62
297.299	9488.41
297.366	9487.6
297.433	9492.55
297.5	9500.21
297.566	9504.83
297.633	9502.48
297.7	9512.59
297.767	9507.05
297.833	9522.61
297.9	9532.38
297.967	9518.95
298.033	9531.95
298.1	9563.83
298.167	9552.08
298.234	9552.66
298.3	9560.37
298.367	9550.83
298.434	9554.54
298.5	9540.62
298.567	9538.84
298.634	9538.02
298.7	9548.57
298.767	9550.06
298.834	9568.74
298.9	9564.99
298.967	9557.33
299.033	9563.78
299.1	9575.39
299.167	9594.75
299.233	9589.89
299.3	9598.07
299.366	9616.9
299.433	9629.62
299.5	9596.34
299.566	9602.55
299.633	9627.35
299.699	9639.49
299.766	9639.1
299.832	9645.31
299.899	9658.27
299.965	9674.74
300.032	9670.41
300.099	9680.28
300.165	9684.13
300.232	9676.81
300.298	9682.16
300.365	9702.87
300.431	9711.01
300.498	9700.07
300.564	9699.98
300.631	9706.96
300.697	9723.05
300.763	9717.17
300.83	9713.03
300.896	9730.56
300.963	9736.97
301.029	9738.6
301.096	9742.55
301.162	9754.21
301.229	9748.04
301.295	9735.96
301.361	9732.01
301.428	9740.1
301.494	9717.12
301.561	9725.55
301.627	9729.12
301.693	9726.03
301.76	9723.34
301.826	9713.22
301.892	9730.03
301.959	9740.58
302.025	9739.14
302.092	9723.96
302.158	9733.69
302.224	9738.46
302.291	9729.21
302.357	9726.18
302.423	9725.65
302.49	9718.86
302.556	9731.67
302.622	9732.1
302.688	9744.15
302.755	9761.82
302.821	9763.89
302.887	9783.83
302.954	9777.86
303.02	9783.3
303.086	9791.39
303.152	9798.81
303.219	9794.67
303.285	9796.4
303.351	9803.72
303.417	9805.12
303.483	9805.7
303.55	9799
303.616	9797.94
303.682	9798.91
303.748	9789.76
303.815	9797.46
303.881	9809.51
303.947	9793.32
304.013	9796.12
304.079	9784.7
304.145	9765.29
304.212	9764.33
304.278	9756.09
304.344	9747.95
304.41	9736.83
304.476	9724.21
304.542	9717.37
304.608	9729.89
304.674	9708.6
304.741	9700.8
304.807	9700.08
304.873	9701.81
304.939	9718.57
305.005	9697.91
305.071	9690.73
305.137	9695.45
305.203	9670.12
305.269	9662.03
305.335	9672.62
305.401	9671.13
305.467	9673.49
305.533	9683.51
305.599	9690.35
305.666	9693.14
305.732	9699.3
305.798	9712.6
305.864	9744.82
305.93	9742.94
305.996	9741.83
306.062	9746.94
306.128	9748.67
306.194	9741.93
306.259	9743.81
306.325	9730.37
306.391	9745.16
306.457	9754.69
306.523	9758.3
306.589	9786.77
306.655	9780.94
306.721	9761
306.787	9748.67
306.853	9763.22
306.919	9750.02
306.985	9750.6
307.051	9753.39
307.117	9745.01
307.183	9740.29
307.248	9707.73
307.314	9714.24
307.38	9715.73
307.446	9723.15
307.512	9707.11
307.578	9707.49
307.644	9704.46
307.709	9713.42
307.775	9703.25
307.841	9700.89
307.907	9707.11
307.973	9688.27
308.039	9683.89
308.104	9695.06
308.17	9695.45
308.236	9676.57
308.302	9677.63
308.368	9661.59
308.433	9659.52
308.499	9651.91
308.565	9639.92
308.631	9645.99
308.696	9622.29
308.762	9606.26
308.828	9603.8
308.894	9584.06
308.959	9567.92
309.025	9560.22
309.091	9546.93
309.156	9541.72
309.222	9543.79
309.288	9522.89
309.354	9502.28
309.419	9504.11
309.485	9487.06
309.551	9491.21
309.616	9479.02
309.682	9472.18
309.748	9468.43
309.813	9455.43
309.879	9453.02
309.945	9441.56
310.01	9433.18
310.076	9431.59
310.141	9421.91
310.207	9404.67
310.273	9413.34
310.338	9412.95
310.404	9397.4
310.469	9384.59
310.535	9371.35
310.601	9348.86
310.666	9356.32
310.732	9361.47
310.797	9353.43
310.863	9341.78
310.928	9330.61
310.994	9329.31
311.059	9329.45
311.125	9326.03
311.191	9338.55
311.256	9327.09
311.322	9333.64
311.387	9311.2
311.453	9711.32
311.518	9688.21
311.584	9687.68
311.649	9690.86
311.715	9685.03
311.78	9681.81
311.846	9675.79
311.911	9689.46
311.976	9689.27
312.042	9670.4
312.107	9658.74
312.173	9646.95
312.238	9634.53
312.304	9634.67
312.369	9633.66
312.434	9622.01
312.5	9609.73
312.565	9571.21
312.631	9577.61
312.696	9565.38
312.761	9570.01
312.827	9163.05
312.892	9201.77
312.958	9195.02
313.023	9188.09
313.088	9183.32
313.154	9173.74
313.219	9162.24
313.284	9143.8
313.35	9139.51
313.415	9132.19
313.48	9122.76
313.546	9123.91
313.611	9142.88
313.676	9132.34
313.741	9117.51
313.807	9120.35
313.872	9125.93
313.937	9138.35
314.003	9150.2
314.068	9156.7
314.133	9159.59
314.198	9149.38
314.264	9131.66
314.329	9120.59
314.394	9118.18
314.459	9115.63
314.525	9134.6
314.59	9130.5
314.655	9121.5
314.72	9128.39
314.785	9133.54
314.851	9131.52
314.916	9119
314.981	9099.5
315.046	9086.84
315.111	9077.5
315.176	9064.45
315.242	9069.7
315.307	9071.39
315.372	9045.58
315.437	9034.07
315.502	9028.2
315.567	9041.63
315.632	9018.91
315.698	9025.02
315.763	9024.93
315.828	9018.23
315.893	9009.57
315.958	9003.17
316.023	8993.39
316.088	8973.22
316.153	8950.41
316.218	8940.01
316.283	8912.82
316.348	8898.04
316.413	8899.1
316.479	8885.62
316.544	8852.61
316.609	8821.27
316.674	8783.01
316.739	8752.78
316.804	8724.1
316.869	8687.33
316.934	8644.2
316.999	8617.78
317.064	8562.3
317.129	8511.57
317.194	8475.96
317.259	8426.92
317.324	8376.36
317.389	8331.95
317.454	8293.89
317.518	8259.49
317.583	8232.93
317.648	8218.93
317.713	8185.2
317.778	8124.49
317.843	8094.76
317.908	8059.6
317.973	8024.43
318.038	7996.53
318.103	7952.63
318.168	7912.03
318.233	7882.02
318.297	7832.44
318.362	7791.95
318.427	7755.12
318.492	7732.61
318.557	7683.9
318.622	7657.6
318.687	7644.09
318.751	7607.12
318.816	7571.93
318.881	7537.56
318.946	7483.85
319.011	7434.1
319.075	7392.32
319.14	7355.17
319.205	7306.34
319.27	7272.41
319.335	7223.1
319.399	7178.93
319.464	7155.29
319.529	7106.23
319.594	7067.49
319.658	7039.1
319.723	7000.47
319.788	6971.84
319.853	6915.1
319.917	6885.99
319.982	6834.92
320.047	6790.86
320.112	6763.68
320.176	6711.76
320.241	6679.05
320.306	6647.88
320.37	6606.3
320.435	6573.6
320.5	6553.72
320.564	6514.06
320.629	6471.53
320.694	6438.45
320.758	6400.29
320.823	6354.44
320.888	6328.05
320.952	6276.07
321.017	6238.44
321.082	6198.22
321.146	6162.99
321.211	6128.35
321.275	6088.24
321.34	6042.37
321.405	6000.49
321.469	5954.05
321.534	5918.51
321.598	5864.74
321.663	5833.13
321.727	5805.35
321.792	5755.67
321.857	5709.95
321.921	5675.91
321.986	5634.15
322.05	5576.54
322.115	5535.21
322.179	5490.01
322.244	5434.08
322.308	5402.88
322.373	5351.37
322.437	5313.79
322.502	5288.86
322.566	5247.56
322.631	5207.02
322.695	5165.4
322.76	5116.49
322.824	5081.33
322.889	5031.58
322.953	4989.88
323.018	4924.94
323.082	4859.87
323.146	4810.8
323.211	4755.22
323.275	4706
323.34	4659.06
323.404	4625.57
323.468	4581.58
323.533	4538.33
323.597	4492.7
323.662	4438.64
323.726	4408.55
323.79	4358.13
323.855	4286.4
323.919	4237.8
323.983	4193.7
324.048	4127.67
324.112	4298.19
324.177	4167.77
324.241	3956.8
324.305	3746.02
324.37	3539.97
324.434	3340.52
324.498	3295.57
324.562	3243.13
324.627	3186.05
324.691	3131.17
324.755	3065.53
324.82	2988.21
324.884	2913.02
324.948	2841.95
325.012	2750.74
325.077	2620.6
