Data from 20250703_urea_0.1M_MAYP1162681_04-11-04-807.txt Node
Date: Fri Jul 04 04:11:04 BST 2025
User: adleo
Spectrometer: MAYP116268
Trigger mode: 0
Integration Time (sec): 1.000000E0
Scans to average: 1
Electric dark correction enabled: true
Nonlinearity correction enabled: true
Boxcar width: 10
XAxis mode: Wavelengths
Number of Pixels in Spectrum: 2068
>>>>>Begin Spectral Data<<<<<
179.565	1282.19
179.642	1341.32
179.718	1390.73
179.795	1434.16
179.871	1468.59
179.948	1488.12
180.024	1512.69
180.101	1535.86
180.177	1552.76
180.254	1573.96
180.33	1597.23
180.407	1659.15
180.483	1760.11
180.56	1857.8
180.636	1947.2
180.712	1933.5
180.789	1943.77
180.865	1957.56
180.942	1966.21
181.018	1979.28
181.095	1993.31
181.171	1997.69
181.248	1999.73
181.324	2013.67
181.4	2019.33
181.477	2030.84
181.553	2042.87
181.63	2063.37
181.706	2080.5
181.782	2087.01
181.859	2089.39
181.935	2097.38
182.011	2091.91
182.088	2112.13
182.164	2129.83
182.24	2144.43
182.317	2154.8
182.393	2154.84
182.469	2168.31
182.546	2184.77
182.622	2188.14
182.698	2181.2
182.775	2190
182.851	2204.84
182.927	2198.99
183.003	2193.09
183.08	2187.72
183.156	2197.76
183.232	2193.09
183.308	2180.87
183.385	2190.09
183.461	2210.03
183.537	2209.22
183.613	2224.26
183.69	2214.03
183.766	2205.84
183.842	2214.45
183.918	2221.4
183.995	2233.72
184.071	2236.72
184.147	2228.87
184.223	2218.22
184.299	2236.3
184.375	2226.45
184.452	2233.97
184.528	2284.66
184.604	2297.84
184.68	2311.21
184.756	2317.35
184.832	2322.44
184.908	2327.29
184.985	2327.29
185.061	2309.97
185.137	2320.82
185.213	2308.69
185.289	2307.22
185.365	2297.22
185.441	2294.61
185.517	2304.6
185.593	2301.13
185.669	2299.46
185.745	2311.74
185.822	2325.01
185.898	2313.07
185.974	2325.1
186.05	2317.72
186.126	2283.41
186.202	2276.84
186.278	2274.51
186.354	2266.89
186.43	2274.23
186.506	2274.13
186.582	2273.27
186.658	2280.98
186.734	2258.14
186.81	2260
186.886	2261.71
186.962	2273.89
187.038	2272.42
187.114	2265.75
187.19	2276.08
187.266	2266.37
187.341	2268.23
187.417	2264.8
187.493	2263.95
187.569	2267.42
187.645	2258.95
187.721	2245.39
187.797	2252.67
187.873	2254.09
187.949	2249.86
188.025	2244.34
188.101	2246.57
188.176	2254.28
188.252	2247.24
188.328	2256.85
188.404	2258.61
188.48	2256.99
188.556	2251.66
188.632	2252.18
188.707	2250.52
188.783	2245.47
188.859	2239.1
188.935	2226.49
189.011	2232.24
189.086	2227.87
189.162	2218.97
189.238	2216.59
189.314	2214.45
189.39	2207.84
189.465	2199.6
189.541	2213.93
189.617	2196.28
189.693	2194.13
189.768	2196.42
189.844	2223.55
189.92	2212.9
189.996	2219.66
190.071	2231.7
190.147	2231.89
190.223	2238.36
190.298	2232.51
190.374	2216.61
190.45	2228.7
190.526	2237.93
190.601	2231.17
190.677	2232.17
190.753	2258.45
190.828	2260.78
190.904	2277.01
190.98	2293
191.055	2307.19
191.131	2301
191.207	2326.94
191.282	2336.45
191.358	2324.98
191.433	2309.18
191.509	2324.78
191.585	2322.92
191.66	2322.49
191.736	2330.3
191.811	2320.54
191.887	2338.68
191.963	2365.09
192.038	2373.33
192.114	2371.38
192.189	2377.75
192.265	2375.8
192.34	2353.9
192.416	2353.76
192.491	2350.09
192.567	2354.04
192.642	2355.04
192.718	2354.76
192.793	2336.53
192.869	2332.77
192.944	2337.29
193.02	2345
193.095	2348.66
193.171	2352.99
193.246	2353.23
193.322	2348.42
193.397	2349.85
193.473	2333.71
193.548	2315.24
193.624	2321.43
193.699	2322.1
193.775	2338.67
193.85	2340.19
193.925	2352.23
194.001	2352.8
194.076	2342.71
194.152	2332.24
194.227	2322.67
194.302	2312.96
194.378	2317.2
194.453	2311.73
194.529	2323.15
194.604	2306.59
194.679	2300.02
194.755	2280.75
194.83	2292.8
194.905	2291.61
194.981	2301.18
195.056	2292.85
195.131	2298.23
195.207	2293.23
195.282	2283.57
195.357	2263.72
195.433	2278.28
195.508	2266
195.583	2272.99
195.659	2289.51
195.734	2295.46
195.809	2296.56
195.884	2306.02
195.96	2307.97
196.035	2324.92
196.11	2321.35
196.185	2334.1
196.261	2339.48
196.336	2371.13
196.411	2358.56
196.486	2364.75
196.561	2357.56
196.637	2367.69
196.712	2385.88
196.787	2389.26
196.862	2404.11
196.937	2414.44
197.013	2419.63
197.088	2430.05
197.163	2454.92
197.238	2471.93
197.313	2471.45
197.388	2485.07
197.464	2516.27
197.539	2528.5
197.614	2519.12
197.689	2532.12
197.764	2551.8
197.839	2573.42
197.914	2568.32
197.989	2595
198.065	2607.85
198.14	2660.99
198.215	2692.24
198.29	2700.87
198.365	2715.11
198.44	2726.83
198.515	2758.13
198.59	2776
198.665	2804.45
198.74	2813.27
198.815	2812.6
198.89	2840.1
198.965	2875.8
199.04	2869.66
199.115	2885.19
199.19	2932.75
199.265	2936.75
199.34	2945
199.415	2977.05
199.49	2998.87
199.565	3003.59
199.64	3036.2
199.715	3033.43
199.79	3038.39
199.865	3048.79
199.94	3046.69
200.015	3081.12
200.09	3085.75
200.165	3093.52
200.24	3098.48
200.315	3141.35
200.39	3160.52
200.464	3165.95
200.539	3165.33
200.614	3184.55
200.689	3209.78
200.764	3215.75
200.839	3233.96
200.914	3242.49
200.989	3233.33
201.063	3249.5
201.138	3230.2
201.213	3226.62
201.288	3207.73
201.363	3214.84
201.438	3216.61
201.512	3236.39
201.587	3217.64
201.662	3222.6
201.737	3235.1
201.812	3239.2
201.886	3205.45
201.961	3214.8
202.036	3201.79
202.111	3198.97
202.186	3169.23
202.26	3149.95
202.335	3129.25
202.41	3125.05
202.485	3105.93
202.559	3085.29
202.634	3057.77
202.709	3069.73
202.784	3049.23
202.858	3050.56
202.933	3031.11
203.008	3025.86
203.082	3008.27
203.157	3011.32
203.232	2972.67
203.306	2955.49
203.381	2930.6
203.456	2910.53
203.53	2892.64
203.605	2881.34
203.68	2864.41
203.754	2865.56
203.829	2863.13
203.904	2851.64
203.978	2852.4
204.053	2870.57
204.127	2871.71
204.202	2884.91
204.277	2882.53
204.351	2890.87
204.426	2902.94
204.5	2913.66
204.575	2897.98
204.65	2924.93
204.724	2942.39
204.799	2972.75
204.873	2994.64
204.948	3022.11
205.022	3038.8
205.097	3062.8
205.171	3108.49
205.246	3146
205.32	3183.28
205.395	3218.55
205.469	3248.92
205.544	3291.46
205.618	3318.43
205.693	3380.77
205.767	3413.65
205.842	3485.22
205.916	3533.97
205.991	3572.36
206.065	3632.15
206.14	3706.95
206.214	3761.42
206.289	3811.6
206.363	3886.81
206.438	3952.31
206.512	4025.44
206.586	4115.12
206.661	4191.75
206.735	4238.79
206.81	4317.16
206.884	4408.51
206.958	4471.46
207.033	4569.13
207.107	4658.05
207.181	4770.71
207.256	4841.04
207.33	4945.41
207.405	5047.73
207.479	5152.73
207.553	5250.63
207.628	5324.25
207.702	5422.14
207.776	5513.21
207.851	5607.78
207.925	5713.58
207.999	5806.62
208.073	5905.09
208.148	6004.55
208.222	6092.22
208.296	6226.11
208.371	6341.24
208.445	6452
208.519	6586.65
208.593	6702.08
208.668	6803.87
208.742	6911.04
208.816	7023.04
208.89	7151.11
208.965	7255.44
209.039	7375.04
209.113	7500.44
209.187	7632.93
209.261	7741.71
209.336	7875.63
209.41	8006.91
209.484	8122.41
209.558	8258.25
209.632	8377.8
209.707	8497.36
209.781	8631.41
209.855	8763.05
209.929	8892.02
210.003	9006.67
210.077	9116.38
210.151	9280.87
210.226	9421.52
210.3	9559.99
210.374	9689.32
210.448	9792.62
210.522	9910.77
210.596	10025.03
210.67	10146.75
210.744	10302.87
210.818	10444.93
210.892	10571.64
210.966	10676.52
211.041	10798.23
211.115	10899.46
211.189	11030.43
211.263	11153.4
211.337	11253.53
211.411	11363.7
211.485	11466.31
211.559	11583.61
211.633	11683.85
211.707	11744.44
211.781	11856.75
211.855	11923.07
211.929	12018.4
212.003	12102.94
212.077	12212.94
212.151	12317.44
212.225	12415.24
212.299	12495.02
212.373	12574.03
212.447	12658.82
212.52	12784.97
212.594	12878.54
212.668	12982.61
212.742	13065.86
212.816	13150.13
212.89	13241.33
212.964	13331.24
213.038	13423.17
213.112	13528.3
213.186	13634.07
213.26	13702.66
213.333	13740.46
213.407	13827.66
213.481	13911.64
213.555	14011.28
213.629	14079.39
213.703	14145.92
213.777	14233.7
213.85	14302.06
213.924	14425.36
213.998	14509.72
214.072	14579.09
214.146	14647.58
214.219	14721.29
214.293	14785.5
214.367	14866.77
214.441	14951.61
214.515	15018.18
214.588	15069.22
214.662	15106.43
214.736	15164.62
214.81	15243.33
214.883	15319.2
214.957	15370.73
215.031	15427.13
215.105	15464.87
215.178	15519.15
215.252	15590.49
215.326	15632.57
215.4	15676.24
215.473	15684.43
215.547	15721.5
215.621	15769.41
215.694	15835.73
215.768	15871.64
215.842	15921.91
215.915	15965.58
215.989	15997.53
216.063	16043.56
216.136	16089.69
216.21	16140.44
216.284	16194.71
216.357	16247.68
216.431	16306.82
216.504	16381.14
216.578	16466.93
216.652	16536.24
216.725	16587.08
216.799	16645.01
216.873	16687.86
216.946	16746.52
217.02	16792.93
217.093	16848.98
217.167	16885.13
217.24	16914.19
217.314	16956.36
217.387	17001.95
217.461	17046.58
217.535	17117.52
217.608	17153.18
217.682	17205.67
217.755	17265.86
217.829	17313.09
217.902	17368.37
217.976	17412.66
218.049	17446.3
218.123	17472.51
218.196	17524.46
218.27	17572.99
218.343	17606.05
218.417	17664.99
218.49	17710.63
218.563	17776.03
218.637	17827.88
218.71	17886.82
218.784	17940.41
218.857	18001.47
218.931	18052.64
219.004	18101.65
219.077	18149.75
219.151	18202.86
219.224	18262.95
219.298	18302.85
219.371	18354.37
219.444	18386.99
219.518	18434.51
219.591	18484.38
219.665	18560.33
219.738	18613
219.811	18648.86
219.885	18712.13
219.958	18765.67
220.031	18809.09
220.105	18851.54
220.178	18892.99
220.251	18930.57
220.325	18984.02
220.398	19038.62
220.471	19086.23
220.544	19136.78
220.618	19173.74
220.691	19210.85
220.764	19241.93
220.838	19293.97
220.911	19338.07
220.984	19400.91
221.057	19449.05
221.131	19492.85
221.204	19505.62
221.277	19557.72
221.35	19624.37
221.424	19641.47
221.497	19679.21
221.57	19722.53
221.643	19764.6
221.716	19810.57
221.79	19839.58
221.863	19870.76
221.936	19897.32
222.009	19929.65
222.082	19968.49
222.155	19986.85
222.229	20050.8
222.302	20087.67
222.375	20114.13
222.448	20147.19
222.521	20179.43
222.594	20208.73
222.667	20220.87
222.74	20257.6
222.814	20277.74
222.887	20306.9
222.96	20351.86
223.033	20387.52
223.106	20417.98
223.179	20462.95
223.252	20483.86
223.325	20513.16
223.398	20545.74
223.471	20568.3
223.544	20591.38
223.617	20612.1
223.69	20647.96
223.763	20650.99
223.837	20675.57
223.91	20704.15
223.983	20698.47
224.056	20697.07
224.129	20720.39
224.202	20755.24
224.275	20765.65
224.348	20776.59
224.42	20779.58
224.493	20775.29
224.566	20782.71
224.639	20803.34
224.712	20808.59
224.785	20825.51
224.858	20846.52
224.931	20852.78
225.004	20869.8
225.077	20893.94
225.15	20871.72
225.223	20879.97
225.296	20912.45
225.369	20900.74
225.442	20904.11
225.514	20925.03
225.587	20941.13
225.66	20949.61
225.733	20967.25
225.806	20987.49
225.879	21002.96
225.952	21003.25
226.025	21032.41
226.097	21057.76
226.17	21059.83
226.243	21043.06
226.316	21042.87
226.389	21044.84
226.461	21057.95
226.534	21073.43
226.607	21076.75
226.68	21110.63
226.753	21122.58
226.825	21114.01
226.898	21145.72
226.971	21153.38
227.044	21168.37
227.117	21178.93
227.189	21189.29
227.262	21199.26
227.335	21205.15
227.407	21193.92
227.48	21206.06
227.553	21207.12
227.626	21203.46
227.698	21210.59
227.771	21218.54
227.844	21217.87
227.916	21227.51
227.989	21219.65
228.062	21202.73
228.134	21221.92
228.207	21228.14
228.28	21230.21
228.352	21223.41
228.425	21224.67
228.498	21232.38
228.57	21234.74
228.643	21256.72
228.716	21254.84
228.788	21237.44
228.861	21225.15
228.934	21243.41
229.006	21239.37
229.079	21238.55
229.151	21224.95
229.224	21201.05
229.296	21210.21
229.369	21232.91
229.442	21252.57
229.514	21240.67
229.587	21263.56
229.659	21239.7
229.732	21235.66
229.804	21234.89
229.877	21257.54
229.949	21260.53
230.022	21272.19
230.094	21261.68
230.167	21245.44
230.239	21225.49
230.312	21234.11
230.384	21256.38
230.457	21258.07
230.529	21254.98
230.602	21247.32
230.674	21250.98
230.747	21260.91
230.819	21269.06
230.892	21237.87
230.964	21227.17
231.037	21231.99
231.109	21218.64
231.181	21230.02
231.254	21219.22
231.326	21205
231.399	21196.57
231.471	21179.12
231.544	21147.94
231.616	21148.13
231.688	21143.02
231.761	21130.54
231.833	21116.51
231.905	21073.42
231.978	21050.87
232.05	21032.89
232.122	21027.93
232.195	21004.07
232.267	21009.23
232.339	20991.3
232.412	20988.7
232.484	20966.96
232.556	20938.96
232.629	20945.75
232.701	20932.5
232.773	20916.02
232.846	20900.84
232.918	20882.86
232.99	20876.54
233.062	20878.76
233.135	20865.84
233.207	20840.06
233.279	20836.78
233.351	20816.45
233.424	20806.23
233.496	20787.38
233.568	20793.75
233.64	20756.49
233.713	20741.46
233.785	20721.17
233.857	20701.12
233.929	20671.72
234.001	20662.61
234.074	20668.83
234.146	20622.9
234.218	20602.13
234.29	20590.41
234.362	20559.43
234.434	20520.1
234.507	20476.68
234.579	20431.67
234.651	20406.51
234.723	20390.75
234.795	20380.58
234.867	20367.43
234.939	20366.65
235.012	20344.97
235.084	20326.65
235.156	20316.92
235.228	20292.97
235.3	20271.43
235.372	20248.82
235.444	20240
235.516	20201.64
235.588	20170.17
235.66	20150.7
235.732	20111.91
235.804	20147.33
235.876	20145.5
235.948	20136.39
236.02	20118.37
236.092	20095.72
236.164	20066.04
236.236	20040.16
236.308	20002.95
236.38	19979.68
236.452	19936.93
236.524	19917.17
236.596	19904.5
236.668	19884.98
236.74	19852.4
236.812	19826.86
236.884	19809.13
236.956	19780.31
237.028	19745.18
237.1	19706.73
237.172	19686.87
237.244	19685.76
237.316	19612.12
237.388	19572.51
237.46	19531.65
237.532	19527.41
237.604	19484.56
237.675	19483.02
237.747	19457.58
237.819	19419.75
237.891	19391.94
237.963	19352.09
238.035	19311.8
238.107	19238.8
238.178	19227.95
238.25	19204.34
238.322	19198.8
238.394	19147.91
238.466	19112.06
238.538	19086.28
238.609	19066.52
238.681	19013.56
238.753	18960.16
238.825	18926.19
238.897	18894.96
238.968	18881.57
239.04	18833.47
239.112	18839.06
239.184	18791.26
239.255	18758.44
239.327	18734.97
239.399	18700.9
239.471	18682.64
239.542	18658.59
239.614	18649.68
239.686	18584.67
239.758	18565.97
239.829	18510.07
239.901	18490.75
239.973	18456.34
240.044	18423.42
240.116	18395.33
240.188	18370.12
240.259	18342.08
240.331	18299.91
240.403	18269.79
240.474	18221.89
240.546	18180.16
240.618	18123.29
240.689	18085.7
240.761	18053.51
240.833	18040.12
240.904	18001.51
240.976	17959.93
241.048	17928.6
241.119	17898.34
241.191	17877.33
241.262	17852.89
241.334	17818.77
241.405	17787.31
241.477	17753.47
241.549	17728.27
241.62	17697.81
241.692	17674.97
241.763	17660.9
241.835	17634.49
241.906	17605
241.978	17562.54
242.049	17545.24
242.121	17526.49
242.192	17503.45
242.264	17459.5
242.335	17407.36
242.407	17379.65
242.478	17353.86
242.55	17324.03
242.621	17284.37
242.693	17243.79
242.764	17209.19
242.836	17166.49
242.907	17142.1
242.979	17115.21
243.05	17079.88
243.122	17052.27
243.193	17016.51
243.264	16952.79
243.336	16916.31
243.407	16895.59
243.479	16884.16
243.55	16852.07
243.622	16823.92
243.693	16787.73
243.764	16765.75
243.836	16723.05
243.907	16693.79
243.978	16656.25
244.05	16626.17
244.121	16573.93
244.192	16549.4
244.264	16498.6
244.335	16470.26
244.407	16413.24
244.478	16389.09
244.549	16350.92
244.62	16302
244.692	16267.4
244.763	16249.56
244.834	16213.7
244.906	16171.43
244.977	16133.89
245.048	16115.91
245.119	16078.7
245.191	16036.96
245.262	15985.1
245.333	15964.18
245.405	15922.73
245.476	15895.11
245.547	15869.37
245.618	15847.64
245.689	15819.34
245.761	15788.59
245.832	15756.44
245.903	15738.75
245.974	15705.45
246.045	15672.14
246.117	15655.99
246.188	15612.56
246.259	15567.4
246.33	15533.42
246.401	15501.17
246.473	15458.42
246.544	15416.05
246.615	15386.5
246.686	15355.6
246.757	15345.82
246.828	15308.32
246.899	15297.33
246.97	15246.76
247.042	15201.26
247.113	15186.22
247.184	15176.87
247.255	15143.56
247.326	15109.82
247.397	15071.93
247.468	15045.56
247.539	15017.46
247.61	14973.98
247.681	14953.11
247.752	14944.87
247.823	14897
247.894	14864.51
247.965	14818.72
248.037	14789.6
248.108	14745.06
248.179	14713.34
248.25	14678.11
248.321	14656.46
248.392	14615.39
248.463	14616.07
248.534	14587
248.605	14561.88
248.675	14519.71
248.746	14500.04
248.817	14477.14
248.888	14455.98
248.959	14403.58
249.03	14385.84
249.101	14361.79
249.172	14333.59
249.243	14272.99
249.314	14269.28
249.385	14241.8
249.456	14238.77
249.527	14210.71
249.598	14192.73
249.669	14162.07
249.739	14140.76
249.81	14118.83
249.881	14076.5
249.952	14049.03
250.023	14025.65
250.094	13986.5
250.165	13950.11
250.235	13919.84
250.306	13896.84
250.377	13861.6
250.448	13843.77
250.519	13795.22
250.59	13785.48
250.66	13749.04
250.731	13747.64
250.802	13720.69
250.873	13707.2
250.944	13676.49
251.014	13633.92
251.085	13641.49
251.156	13618.06
251.227	13605.87
251.297	13589.77
251.368	13582.05
251.439	13561.03
251.51	13547.54
251.58	13512.73
251.651	13489.64
251.722	13473.64
251.792	13439.51
251.863	13412.08
251.934	13406.68
252.005	13408.89
252.075	13380.16
252.146	13373.46
252.217	13360.83
252.287	13346.66
252.358	13309.88
252.429	13308.09
252.499	13282.59
252.57	13249.28
252.641	13239.64
252.711	13210.04
252.782	13175.33
252.852	13169.6
252.923	13148
252.994	13123.08
253.064	13109.92
253.135	13069.62
253.205	13037.13
253.276	13026.96
253.347	13018.95
253.417	12988.34
253.488	12958.79
253.558	12930.74
253.629	12910.78
253.699	12888.31
253.77	12866.86
253.841	12843.19
253.911	12821.6
253.982	12808.82
254.052	12795.61
254.123	12782.21
254.193	12759.07
254.264	12774.4
254.334	12737.14
254.405	12701.28
254.475	12669.7
254.546	12647.05
254.616	12646.23
254.687	12634.46
254.757	12621.5
254.827	12600
254.898	12577.29
254.968	12562.59
255.039	12537.48
255.109	12516.65
255.18	12483.15
255.25	12445.89
255.321	12432.73
255.391	12391.66
255.461	12387.08
255.532	12339.41
255.602	12309.66
255.673	12270.62
255.743	12237.17
255.813	12194.65
255.884	12186.89
255.954	12165.49
256.024	12164.72
256.095	12149
256.165	12114.83
256.235	12095.93
256.306	12068.65
256.376	12063.69
256.446	12046.72
256.517	12032.74
256.587	12028.45
256.657	12015.68
256.728	12004.16
256.798	11993.22
256.868	11984.2
256.938	11953.4
257.009	11944.87
257.079	11938.51
257.149	11945.79
257.219	11905.59
257.29	11897.2
257.36	11857.68
257.43	11860.18
257.5	11819.84
257.571	11797.19
257.641	11794.39
257.711	11765.9
257.781	11755.44
257.852	11742.53
257.922	11706.33
257.992	11692.11
258.062	11667.91
258.132	11650.18
258.202	11623.57
258.273	11598.17
258.343	11595.81
258.413	11573.74
258.483	11554.6
258.553	11518.17
258.623	11498.21
258.693	11488.48
258.764	11480.67
258.834	11481.78
258.904	11459.03
258.974	11426.64
259.044	11402.93
259.114	11387.12
259.184	11372.08
259.254	11353.14
259.324	11307.41
259.394	11299.17
259.464	11290.39
259.535	11272.27
259.605	11254.06
259.675	11228.76
259.745	11223.31
259.815	11189.09
259.885	11162.97
259.955	11170.88
260.025	11144.04
260.095	11114.35
260.165	11099.7
260.235	11101.1
260.305	11076.23
260.375	11055.02
260.445	11069.05
260.515	11066.25
260.585	11062.2
260.655	11046.88
260.725	11041.58
260.795	11034.4
260.865	11034.4
260.934	11005.43
261.004	10992.9
261.074	10975.41
261.144	10976.57
261.214	10960.95
261.284	10940.47
261.354	10937.01
261.424	10907.22
261.494	10910.93
261.564	10899.13
261.634	10896.96
261.703	10862.36
261.773	10855.47
261.843	10843.28
261.913	10822.03
261.983	10794.27
262.053	10778.61
262.123	10760.39
262.192	10729.89
262.262	10726.86
262.332	10697.32
262.402	10692.88
262.472	10683.1
262.541	10640.85
262.611	10642.63
262.681	10621.82
262.751	10617.48
262.821	10593.59
262.89	10565.98
262.96	10558.02
263.03	10560.96
263.1	10542.56
263.169	10527.67
263.239	10523.43
263.309	10527.14
263.379	10524.1
263.448	10507.43
263.518	10497.41
263.588	10480.31
263.657	10484.55
263.727	10482.19
263.797	10466.43
263.867	10453.81
263.936	10423.41
264.006	10435.64
264.076	10411.7
264.145	10398.5
264.215	10375.18
264.285	10377.39
264.354	10344.4
264.424	10322.43
264.494	10289.42
264.563	10266.39
264.633	10272.27
264.702	10250.88
264.772	10218.6
264.842	10193.84
264.911	10182.61
264.981	10152.07
265.05	10135.35
265.12	10112.52
265.19	10098.06
265.259	10104.9
265.329	10089.44
265.398	10080.43
265.468	10089.34
265.537	10075.28
265.607	10070.75
265.676	10070.94
265.746	10061.74
265.815	10066.99
265.885	10053.26
265.955	10028.46
266.024	10018.44
266.094	9987.51
266.163	9987.9
266.232	9985.88
266.302	9973.64
266.371	9963.91
266.441	9954.66
266.51	9953.07
266.58	9935.16
266.649	9907.02
266.719	9896.28
266.788	9888.09
266.858	9891.22
266.927	9857.84
266.996	9848.35
267.066	9837.13
267.135	9811.31
267.205	9807.27
267.274	9792.34
267.343	9791.76
267.413	9785.98
267.482	9783.96
267.552	9786.03
267.621	9759.44
267.69	9731.84
267.76	9722.21
267.829	9712.53
267.898	9692.44
267.968	9671.78
268.037	9671.11
268.106	9669.95
268.176	9644.91
268.245	9633.49
268.314	9612.54
268.384	9611.82
268.453	9598.19
268.522	9588.27
268.592	9588.8
268.661	9564.52
268.73	9562.6
268.799	9542.61
268.869	9548.44
268.938	9520.89
269.007	9493.54
269.076	9482.99
269.146	9482.75
269.215	9473.94
269.284	9488.58
269.353	9475.24
269.422	9464.99
269.492	9445.97
269.561	9404.85
269.63	9400.51
269.699	9384.72
269.768	9380.96
269.838	9371.67
269.907	9373.78
269.976	9346.48
270.045	9310.9
270.114	9313.31
270.183	9298.96
270.253	9289.09
270.322	9257.55
270.391	9245.08
270.46	9262.71
270.529	9256.11
270.598	9252.21
270.667	9240.85
270.736	9218.79
270.806	9217.2
270.875	9218.74
270.944	9209.3
271.013	9241.9
271.082	9234.92
271.151	9233.38
271.22	9199.44
271.289	9189.28
271.358	9171.46
271.427	9176.32
271.496	9176.85
271.565	9154.42
271.634	9148.06
271.703	9176.42
271.772	9183.64
271.841	9169.78
271.91	9135.26
271.979	9133.19
272.048	9108.44
272.117	9109.6
272.186	9084.76
272.255	9088.9
272.324	9087.6
272.393	9083.26
272.462	9063.38
272.531	9053.22
272.6	9038.15
272.669	9046.96
272.738	9035.45
272.807	9031.45
272.876	9002.96
272.945	9029.1
273.013	9036.47
273.082	9037.33
273.151	8991.83
273.22	8990
273.289	8988.85
273.358	9006.66
273.427	8992.17
273.496	8992.94
273.564	8986.01
273.633	8991.49
273.702	8969.21
273.771	8955.1
273.84	8952.74
273.909	8947.4
273.977	8948.31
274.046	8943.98
274.115	8947.16
274.184	8929.01
274.253	8918.47
274.322	8927.47
274.39	8896.9
274.459	8875.77
274.528	8851.41
274.597	8847.32
274.665	8843.76
274.734	8848.28
274.803	8837.93
274.872	8828.83
274.94	8816.08
275.009	8848.87
275.078	8837.27
275.147	8834.38
275.215	8830.96
275.284	8830.77
275.353	8822.35
275.421	8792.17
275.49	8800.11
275.559	8788.75
275.627	8778.21
275.696	8767.24
275.765	8771.19
275.833	8756.22
275.902	8757.18
275.971	8768.01
276.039	8782.02
276.108	8783.03
276.177	8779.37
276.245	8764.5
276.314	8764.3
276.383	8774.7
276.451	8732.91
276.52	8731.56
276.588	8747.25
276.657	8751.83
276.725	8744.56
276.794	8741.09
276.863	8754.37
276.931	8731.8
277	8736.13
277.068	8753.12
277.137	8776.85
277.205	8769.44
277.274	8791.14
277.342	8803.46
277.411	8785.23
277.48	8765.2
277.548	8758.61
277.617	8762.31
277.685	8757.89
277.754	8759.81
277.822	8750.47
277.89	8760.97
277.959	8757.17
278.027	8734.74
278.096	8717.22
278.164	8743.31
278.233	8736.67
278.301	8728.63
278.37	8736.04
278.438	8724.78
278.507	8725.45
278.575	8699.75
278.643	8694.12
278.712	8674.05
278.78	8657.97
278.849	8662.64
278.917	8678.86
278.985	8669.86
279.054	8670.77
279.122	8675.49
279.191	8675.01
279.259	8666.15
279.327	8644.93
279.396	8657.78
279.464	8657.83
279.532	8667.07
279.601	8662.54
279.669	8655.85
279.737	8666.58
279.806	8669.33
279.874	8675.49
279.942	8672.79
280.011	8658.98
280.079	8671.4
280.147	8684.11
280.215	8691.71
280.284	8689.69
280.352	8673.71
280.42	8683.82
280.488	8672.17
280.557	8667.6
280.625	8666.64
280.693	8669.81
280.761	8676.74
280.83	8659.7
280.898	8667.84
280.966	8651.57
281.034	8616.15
281.102	8603.83
281.171	8591.55
281.239	8599.16
281.307	8593.38
281.375	8579.62
281.443	8612.15
281.512	8604.16
281.58	8613.5
281.648	8594.83
281.716	8595.5
281.784	8595.12
281.852	8583.47
281.92	8582.46
281.989	8595.94
282.057	8577.6
282.125	8616.31
282.193	8614.48
282.261	8619.63
282.329	8618.09
282.397	8621.21
282.465	8620.73
282.533	8639.79
282.601	8630.69
282.67	8607.4
282.738	8596.28
282.806	8609.56
282.874	8597.43
282.942	8603.02
283.01	8599.55
283.078	8607.88
283.146	8609.9
283.214	8618.9
283.282	8622.89
283.35	8638.44
283.418	8632.86
283.486	8642.48
283.554	8600.36
283.622	8596.99
283.69	8590.64
283.758	8584.96
283.826	8589.48
283.894	8607.96
283.962	8625.19
284.03	8637.22
284.098	8638.91
284.165	8638.09
284.233	8635.49
284.301	8630.92
284.369	8620.67
284.437	8606.57
284.505	8606.33
284.573	8616.1
284.641	8604.64
284.709	8610.27
284.777	8587.7
284.845	8588.95
284.912	8594.87
284.98	8596.41
285.048	8591.65
285.116	8596.41
285.184	8607.19
285.252	8609.84
285.319	8594.39
285.387	8585.53
285.455	8570.23
285.523	8578.7
285.591	8575.72
285.659	8571.53
285.726	8585.83
285.794	8566.1
285.862	8561.72
285.93	8560.61
285.997	8553.73
286.065	8547.86
286.133	8541.12
286.201	8536.6
286.269	8526.44
286.336	8517.25
286.404	8516.05
286.472	8524.52
286.539	8504.84
286.607	8488.62
286.675	8488.19
286.743	8491.22
286.81	8480.77
286.878	8495.45
286.946	8479.76
287.013	8482.55
287.081	8490.88
287.149	8470.47
287.216	8498.09
287.284	8499.39
287.352	8493.96
287.419	8490.2
287.487	8508.73
287.555	8509.02
287.622	8510.08
287.69	8519.37
287.758	8529.38
287.825	8525.29
287.893	8513.88
287.96	8519.7
288.028	8532.98
288.096	8536.83
288.163	8546.27
288.231	8536.69
288.298	8537.8
288.366	8556.66
288.433	8548.05
288.501	8539.2
288.569	8542.52
288.636	8535.1
288.704	8547.47
288.771	8558.88
288.839	8552.62
288.906	8543.81
288.974	8551.66
289.041	8551.08
289.109	8535.25
289.176	8548.77
289.244	8550.36
289.311	8557.63
289.379	8565.57
289.446	8567.06
289.514	8565.23
289.581	8563.45
289.649	8565.13
289.716	8565.18
289.783	8553.2
289.851	8584.05
289.918	8582.26
289.986	8596.03
290.053	8598.15
290.121	8595.93
290.188	8596.17
290.255	8624.09
290.323	8620.38
290.39	8617.64
290.458	8626.01
290.525	8640.06
290.592	8628.08
290.66	8630.29
290.727	8625.96
290.794	8640.59
290.862	8631.69
290.929	8636.98
290.996	8635.63
291.064	8649.35
291.131	8659.84
291.198	8679
291.266	8672.64
291.333	8675.24
291.4	8680.59
291.468	8700.47
291.535	8689.11
291.602	8697.63
291.669	8696.04
291.737	8694.02
291.804	8693.06
291.871	8705.28
291.938	8713.85
292.006	8750
292.073	8765.93
292.14	8780.13
292.207	8775.41
292.275	8784.94
292.342	8790.96
292.409	8813.63
292.476	8845.36
292.543	8832.31
292.611	8830.97
292.678	8849.26
292.745	8879.15
292.812	8883.77
292.879	8880.98
292.946	8891.04
293.014	8906.11
293.081	8907.26
293.148	8926.66
293.215	8944.66
293.282	8942.64
293.349	8950.29
293.416	8923.91
293.484	8937.29
293.551	8950.91
293.618	8967.76
293.685	8993.57
293.752	8989.38
293.819	8984.71
293.886	8964.73
293.953	8977
294.02	8983.88
294.087	8986.58
294.154	8979.02
294.221	8994.77
294.288	8992.17
294.356	9012.43
294.423	9012.19
294.49	9007.09
294.557	9023.51
294.624	9017.68
294.691	9042.57
294.758	9042.86
294.825	9048.97
294.892	9035.54
294.959	9030.39
295.026	9038.33
295.093	9031.98
295.16	9033.09
295.226	9035.69
295.293	9062.94
295.36	9069.68
295.427	9084.7
295.494	9097.89
295.561	9099.87
295.628	9119.27
295.695	9135.55
295.762	9140.22
295.829	9152.01
295.896	9170.11
295.963	9176.18
296.03	9186.29
296.096	9187.93
296.163	9205.74
296.23	9221.97
296.297	9246.71
296.364	9253.45
296.431	9259.91
296.498	9252.3
296.564	9274.25
296.631	9284.7
296.698	9274.59
296.765	9298.76
296.832	9292.55
296.899	9280.8
296.965	9301.5
297.032	9286.04
297.099	9302.99
297.166	9308.68
297.233	9298.56
297.299	9284.03
297.366	9286.58
297.433	9290.72
297.5	9306.22
297.566	9304.2
297.633	9300.21
297.7	9295.63
297.767	9292.74
297.833	9299.92
297.9	9304.68
297.967	9293.37
298.033	9301.51
298.1	9326.31
298.167	9316.68
298.234	9322.55
298.3	9330.93
298.367	9329.63
298.434	9332.28
298.5	9325.44
298.567	9319.23
298.634	9324.81
298.7	9346.58
298.767	9345.52
298.834	9355.48
298.9	9340.75
298.967	9331.7
299.033	9346.72
299.1	9364.49
299.167	9380.67
299.233	9377.44
299.3	9391.89
299.366	9413.7
299.433	9429.06
299.5	9399.25
299.566	9397.57
299.633	9410.62
299.699	9424.2
299.766	9424.82
299.832	9430.6
299.899	9434.7
299.965	9446.83
300.032	9440.62
300.099	9453.24
300.165	9460.75
300.232	9461.66
300.298	9467.59
300.365	9479.77
300.431	9481.84
300.498	9471.1
300.564	9476.3
300.631	9484.44
300.697	9505.53
300.763	9499.95
300.83	9496.48
300.896	9511.6
300.963	9526.14
301.029	9527.11
301.096	9529.9
301.162	9535.24
301.229	9528.31
301.295	9520.03
301.361	9525.95
301.428	9534.71
301.494	9517.76
301.561	9518.2
301.627	9516.37
301.693	9515.21
301.76	9518.49
301.826	9511.65
301.892	9524.02
301.959	9531.54
302.025	9533.03
302.092	9522.72
302.158	9531.1
302.224	9531.15
302.291	9525.08
302.357	9524.46
302.423	9523.54
302.49	9510.01
302.556	9525.08
302.622	9527.68
302.688	9545.31
302.755	9557.21
302.821	9568.62
302.887	9576.52
302.954	9580.18
303.02	9589.9
303.086	9601.22
303.152	9606.47
303.219	9606.42
303.285	9617.6
303.351	9622.89
303.417	9630.02
303.483	9618.18
303.55	9608.45
303.616	9610.86
303.682	9608.74
303.748	9604.26
303.815	9614.9
303.881	9633.25
303.947	9615.62
304.013	9621.12
304.079	9607.77
304.145	9586.87
304.212	9581.48
304.278	9578.3
304.344	9573.24
304.41	9564.43
304.476	9553.45
304.542	9548.97
304.608	9549.36
304.674	9529.71
304.741	9525.71
304.807	9520.27
304.873	9527.88
304.939	9549.36
305.005	9527.83
305.071	9528.12
305.137	9525.61
305.203	9504.37
305.269	9497.15
305.335	9511.31
305.401	9503.46
305.467	9504.13
305.533	9519.83
305.599	9526.91
305.666	9532.16
305.732	9536.06
305.798	9542.37
305.864	9569.2
305.93	9566.65
305.996	9569.39
306.062	9571.37
306.128	9560.87
306.194	9546.32
306.259	9547.91
306.325	9533.17
306.391	9544.4
306.457	9550.13
306.523	9552.44
306.589	9574.06
306.655	9567.46
306.721	9548.25
306.787	9536.98
306.853	9551.19
306.919	9530.34
306.985	9523.5
307.051	9515.65
307.117	9503.85
307.183	9498.84
307.248	9468.31
307.314	9477.79
307.38	9482.27
307.446	9485.11
307.512	9481.89
307.578	9488.48
307.644	9477.94
307.709	9481.69
307.775	9479.43
307.841	9484.83
307.907	9486.7
307.973	9465.95
308.039	9460.07
308.104	9467.78
308.17	9468.69
308.236	9448.22
308.302	9451.06
308.368	9436.81
308.433	9441.82
308.499	9438.3
308.565	9425.3
308.631	9434.45
308.696	9403.44
308.762	9387.12
308.828	9384.56
308.894	9365.02
308.959	9347.73
309.025	9342.92
309.091	9337.81
309.156	9326.3
309.222	9322.98
309.288	9310.46
309.354	9291.44
309.419	9295.97
309.485	9276.22
309.551	9284.99
309.616	9273.53
309.682	9271.75
309.748	9267.22
309.813	9261.35
309.879	9254.13
309.945	9251.48
310.01	9240.83
310.076	9250.75
310.141	9245.84
310.207	9230.38
310.273	9239.92
310.338	9241.22
310.404	9225.71
310.469	9211.13
310.535	9200.92
310.601	9179.78
310.666	9184.06
310.732	9199.13
310.797	9177.8
310.863	9174.77
310.928	9163.65
310.994	9170.2
311.059	9166.39
311.125	9164.18
311.191	9171.83
311.256	9155.85
311.322	9155.08
311.387	9131.83
311.453	9380.5
311.518	9359.71
311.584	9360.57
311.649	9358.89
311.715	9348.01
311.78	9348.78
311.846	9345.7
311.911	9355.04
311.976	9353.35
312.042	9341.03
312.107	9318.78
312.173	9321.86
312.238	9312.91
312.304	9311.66
312.369	9301.5
312.434	9291.58
312.5	9285.42
312.565	9257.06
312.631	9267.75
312.696	9257.16
312.761	9262.4
312.827	9004.68
312.892	9043.77
312.958	9038.43
313.023	9033.71
313.088	9037.51
313.154	9026.01
313.219	9006.8
313.284	8994.48
313.35	8989.28
313.415	8977.77
313.48	8975.51
313.546	8972.09
313.611	8983.55
313.676	8971.03
313.741	8959.43
313.807	8968.48
313.872	8972.24
313.937	8978.21
314.003	8990.68
314.068	8992.46
314.133	9004.69
314.198	8990.25
314.264	8966.6
314.329	8961.12
314.394	8959
314.459	8949.71
314.525	8968.38
314.59	8972.43
314.655	8964.44
314.72	8976.62
314.785	8978.88
314.851	8976.76
314.916	8962.03
314.981	8942.87
315.046	8937.19
315.111	8927.42
315.176	8913.94
315.242	8911.44
315.307	8906.96
315.372	8880.73
315.437	8870.38
315.502	8852.9
315.567	8866.96
315.632	8846.07
315.698	8848.57
315.763	8846.74
315.828	8838.99
315.893	8833.89
315.958	8828.88
316.023	8817.96
316.088	8793.98
316.153	8773.34
316.218	8764.43
316.283	8751.39
316.348	8739.41
316.413	8735.22
316.479	8722.08
316.544	8690.23
316.609	8662.6
316.674	8625.5
316.739	8597.3
316.804	8567.23
316.869	8534.46
316.934	8494.41
316.999	8471.37
317.064	8417.23
317.129	8371.32
317.194	8337.45
317.259	8289.91
317.324	8236.9
317.389	8195.09
317.454	8158.86
317.518	8127.98
317.583	8103.3
317.648	8075.74
317.713	8043.07
317.778	7988.33
317.843	7960.77
317.908	7920.52
317.973	7883.53
318.038	7857.94
318.103	7816.59
318.168	7788.46
318.233	7760.28
318.297	7716.71
318.362	7681.8
318.427	7645.74
318.492	7626.17
318.557	7577.43
318.622	7550.31
318.687	7531.71
318.751	7490.08
318.816	7458.21
318.881	7424.65
318.946	7371.29
319.011	7323.42
319.075	7279.3
319.14	7241.15
319.205	7197.22
319.27	7164.64
319.335	7118.7
319.399	7077.86
319.464	7055.37
319.529	6997.58
319.594	6956.59
319.658	6927
319.723	6882.08
319.788	6850.48
319.853	6789.37
319.917	6765.88
319.982	6715.35
320.047	6681.1
320.112	6659.25
320.176	6605.8
320.241	6572.9
320.306	6544.71
320.37	6512.78
320.435	6487.38
320.5	6465.1
320.564	6425.4
320.629	6386.72
320.694	6361.47
320.758	6324.32
320.823	6275.6
320.888	6256.21
320.952	6205.64
321.017	6163.79
321.082	6127.03
321.146	6096.23
321.211	6067.63
321.275	6026.04
321.34	5981.28
321.405	5932.79
321.469	5887.41
321.534	5845.45
321.598	5791.83
321.663	5761.12
321.727	5728.99
321.792	5674.75
321.857	5627.56
321.921	5592.94
321.986	5551.86
322.05	5489.6
322.115	5451.11
322.179	5411.48
322.244	5354.21
322.308	5329.29
322.373	5285.3
322.437	5246.73
322.502	5221.03
322.566	5175.08
322.631	5141.07
322.695	5102.42
322.76	5057.21
322.824	5018.28
322.889	4976.77
322.953	4934.83
323.018	4868.84
323.082	4803.35
323.146	4754.34
323.211	4701.88
323.275	4654.34
323.34	4610.56
323.404	4584.01
323.468	4535.67
323.533	4491.75
323.597	4450.91
323.662	4393.26
323.726	4354.32
323.79	4306.25
323.855	4241.08
323.919	4195.12
323.983	4149.44
324.048	4079.93
324.112	4248.16
324.177	4122.78
324.241	3913.53
324.305	3705.42
324.37	3501.09
324.434	3305.32
324.498	3263.61
324.562	3214.81
324.627	3156.45
324.691	3100.33
324.755	3030.1
324.82	2958.14
324.884	2882.57
324.948	2807.57
325.012	2717.98
325.077	2598.13
