Data from 20250703_urea_0.1M_MAYP1162681_12-41-05-293.txt Node
Date: Thu Jul 03 12:41:05 BST 2025
User: adleo
Spectrometer: MAYP116268
Trigger mode: 0
Integration Time (sec): 1.000000E0
Scans to average: 1
Electric dark correction enabled: true
Nonlinearity correction enabled: true
Boxcar width: 10
XAxis mode: Wavelengths
Number of Pixels in Spectrum: 2068
>>>>>Begin Spectral Data<<<<<
179.565	1173.8
179.642	1228.86
179.718	1272.6
179.795	1309.17
179.871	1341.39
179.948	1357.74
180.024	1378.03
180.101	1399.17
180.177	1415.78
180.254	1437.16
180.33	1460.59
180.407	1511.96
180.483	1604.93
180.56	1694.39
180.636	1775.95
180.712	1765.35
180.789	1776
180.865	1789.59
180.942	1795.15
181.018	1803.7
181.095	1815.16
181.171	1818.91
181.248	1821.24
181.324	1836.13
181.4	1846.49
181.477	1855.9
181.553	1871.68
181.63	1891.98
181.706	1908.57
181.782	1914.23
181.859	1916.08
181.935	1920.45
182.011	1917.03
182.088	1934.24
182.164	1951.51
182.24	1964.25
182.317	1973.18
182.393	1971.33
182.469	1984.36
182.546	1999.14
182.622	2007.56
182.698	2003.9
182.775	2017.83
182.851	2029
182.927	2021.49
183.003	2016.02
183.08	2010.41
183.156	2014.03
183.232	2009.37
183.308	1997.91
183.385	2006.89
183.461	2024.73
183.537	2025.11
183.613	2038.18
183.69	2030.43
183.766	2021.06
183.842	2026.77
183.918	2032.66
183.995	2044.65
184.071	2046.84
184.147	2044.6
184.223	2031.86
184.299	2044.75
184.375	2032.48
184.452	2037.91
184.528	2084.32
184.604	2092.36
184.68	2105.25
184.756	2115.28
184.832	2123.04
184.908	2129.93
184.985	2127.27
185.061	2107.1
185.137	2116.67
185.213	2107.82
185.289	2106.68
185.365	2099.5
185.441	2100.5
185.517	2112.06
185.593	2108.59
185.669	2104.69
185.745	2113.96
185.822	2131.55
185.898	2121.37
185.974	2133.4
186.05	2126.65
186.126	2094.55
186.202	2089.79
186.278	2088.65
186.354	2080.85
186.43	2085.37
186.506	2082.37
186.582	2081.71
186.658	2091.5
186.734	2073.19
186.81	2073.29
186.886	2079.04
186.962	2091.03
187.038	2087.6
187.114	2079.56
187.19	2086.93
187.266	2078.99
187.341	2080.56
187.417	2072.48
187.493	2073.67
187.569	2074.76
187.645	2071.91
187.721	2063.3
187.797	2069.57
187.873	2071.29
187.949	2063.73
188.025	2061.92
188.101	2061.82
188.176	2068.34
188.252	2062.97
188.328	2066.72
188.404	2069.67
188.48	2062.92
188.556	2055.69
188.632	2055.73
188.707	2057.73
188.783	2054.69
188.859	2052.17
188.935	2039.85
189.011	2046.79
189.086	2041.46
189.162	2032.29
189.238	2027.06
189.314	2020.87
189.39	2016.59
189.465	2009.98
189.541	2026.82
189.617	2007.13
189.693	2003.75
189.768	2006.32
189.844	2030.97
189.92	2024.98
189.996	2032.83
190.071	2044.34
190.147	2044.62
190.223	2053.37
190.298	2048.19
190.374	2037.11
190.45	2050.42
190.526	2058.65
190.601	2053.94
190.677	2053.37
190.753	2082.83
190.828	2088.44
190.904	2105.99
190.98	2120.26
191.055	2129.16
191.131	2120.07
191.207	2140.81
191.282	2152.12
191.358	2145.23
191.433	2130.38
191.509	2143.93
191.585	2136.89
191.66	2137.75
191.736	2141.88
191.811	2133.23
191.887	2147.79
191.963	2169.24
192.038	2171.72
192.114	2173.19
192.189	2177.42
192.265	2174.38
192.34	2150.01
192.416	2147.4
192.491	2140.45
192.567	2145.97
192.642	2147.54
192.718	2148.88
192.793	2133.04
192.869	2129.47
192.944	2130.04
193.02	2138.27
193.095	2140.65
193.171	2148.31
193.246	2147.4
193.322	2148.78
193.397	2149.97
193.473	2136.36
193.548	2120.85
193.624	2125.8
193.699	2123.9
193.775	2138.6
193.85	2141.45
193.925	2152.78
194.001	2154.92
194.076	2148.64
194.152	2137.79
194.227	2133.5
194.302	2123.23
194.378	2133.22
194.453	2130.65
194.529	2142.4
194.604	2126.51
194.679	2121.19
194.755	2103.45
194.83	2115.73
194.905	2111.45
194.981	2119.53
195.056	2112.59
195.131	2119.58
195.207	2119.44
195.282	2107.79
195.357	2087.8
195.433	2104.22
195.508	2091.66
195.583	2097.51
195.659	2113.78
195.734	2119.16
195.809	2117.4
195.884	2127.71
195.96	2127.57
196.035	2144.41
196.11	2140.13
196.185	2153.45
196.261	2159.73
196.336	2189.22
196.411	2176.99
196.486	2183.6
196.561	2178.46
196.637	2185.84
196.712	2195.73
196.787	2198.54
196.862	2215.43
196.937	2228.61
197.013	2230.03
197.088	2241.78
197.163	2264.68
197.238	2281.25
197.313	2278.4
197.388	2293.06
197.464	2322.24
197.539	2330.56
197.614	2321.43
197.689	2334.99
197.764	2348.8
197.839	2367.17
197.914	2361.98
197.989	2380.59
198.065	2393.63
198.14	2443.08
198.215	2469.6
198.29	2482.64
198.365	2494.5
198.44	2506.21
198.515	2531.88
198.59	2550.69
198.665	2572.98
198.74	2579.31
198.815	2579.45
198.89	2604.55
198.965	2633.37
199.04	2628.13
199.115	2646.28
199.19	2687.38
199.265	2689.85
199.34	2701.19
199.415	2736.56
199.49	2757.95
199.565	2768.57
199.64	2791.01
199.715	2787.86
199.79	2797.06
199.865	2803.49
199.94	2805.59
200.015	2834.61
200.09	2839.28
200.165	2844.19
200.24	2852.58
200.315	2890.93
200.39	2906.8
200.464	2914.24
200.539	2913.04
200.614	2930.44
200.689	2952.03
200.764	2957.66
200.839	2973.24
200.914	2979.05
200.989	2966.13
201.063	2979.33
201.138	2964.71
201.213	2968.09
201.288	2950.6
201.363	2957.27
201.438	2958.18
201.512	2974.62
201.587	2959.31
201.662	2965.51
201.737	2978.29
201.812	2985.44
201.886	2955.14
201.961	2965.3
202.036	2950.82
202.111	2952.49
202.186	2927.48
202.26	2916.08
202.335	2897.73
202.41	2895.01
202.485	2881.19
202.559	2863.7
202.634	2840.97
202.709	2853.3
202.784	2837.53
202.858	2840.63
202.933	2824.13
203.008	2826.23
203.082	2812.74
203.157	2820.04
203.232	2786.4
203.306	2776.53
203.381	2756.56
203.456	2746.36
203.53	2735.68
203.605	2733.63
203.68	2725.81
203.754	2738.15
203.829	2739.48
203.904	2739.63
203.978	2750.45
204.053	2776.57
204.127	2788.15
204.202	2813.98
204.277	2823.13
204.351	2850.69
204.426	2879.49
204.5	2906.66
204.575	2910.19
204.65	2957.27
204.724	2991.58
204.799	3048.84
204.873	3094.55
204.948	3146.17
205.022	3191.44
205.097	3242.62
205.171	3313.43
205.246	3382.71
205.32	3446.94
205.395	3515.57
205.469	3582.3
205.544	3666.24
205.618	3732.17
205.693	3830.46
205.767	3906.39
205.842	4020.26
205.916	4110.1
205.991	4195.41
206.065	4303.5
206.14	4425.09
206.214	4530.6
206.289	4635.1
206.363	4759.67
206.438	4879.22
206.512	5011.95
206.586	5155.12
206.661	5287.42
206.735	5400.63
206.81	5540.8
206.884	5692.15
206.958	5823.21
207.033	5984.92
207.107	6139.42
207.181	6321.92
207.256	6468.58
207.33	6645.59
207.405	6819.57
207.479	7001.83
207.553	7172.89
207.628	7323.08
207.702	7504.03
207.776	7666.32
207.851	7840.41
207.925	8034.16
207.999	8211.75
208.073	8383.55
208.148	8568.85
208.222	8744.07
208.296	8961.14
208.371	9157.09
208.445	9356.79
208.519	9576.72
208.593	9775.93
208.668	9966.32
208.742	10163.4
208.816	10369.41
208.89	10573.35
208.965	10766.42
209.039	10962.48
209.113	11183.27
209.187	11407.61
209.261	11605.23
209.336	11829.71
209.41	12048.7
209.484	12240.92
209.558	12455.65
209.632	12666.33
209.707	12866.51
209.781	13090.74
209.855	13298.21
209.929	13520.04
210.003	13725.67
210.077	13914.73
210.151	14157.05
210.226	14387.36
210.3	14600.08
210.374	14803.4
210.448	15003.39
210.522	15198.9
210.596	15397.54
210.67	15584.56
210.744	15814.67
210.818	16030.46
210.892	16237.23
210.966	16417.87
211.041	16609.99
211.115	16785.81
211.189	16985.25
211.263	17180.15
211.337	17354.38
211.411	17541.52
211.485	17696.74
211.559	17866.19
211.633	18038.96
211.707	18174.24
211.781	18335.58
211.855	18467.58
211.929	18628.97
212.003	18771.57
212.077	18942.84
212.151	19107.27
212.225	19277.19
212.299	19413.18
212.373	19550.43
212.447	19694.04
212.52	19869.27
212.594	20018.33
212.668	20179.29
212.742	20311.73
212.816	20446.76
212.89	20579.78
212.964	20706.58
213.038	20853.38
213.112	21007.23
213.186	21160.69
213.26	21272.6
213.333	21363.21
213.407	21501.59
213.481	21625.27
213.555	21758.88
213.629	21869.65
213.703	21969.09
213.777	22092.26
213.85	22193.78
213.924	22336.2
213.998	22445.25
214.072	22549.82
214.146	22661.15
214.219	22767.6
214.293	22870.63
214.367	22984.71
214.441	23098.21
214.515	23208.97
214.588	23287.57
214.662	23350.01
214.736	23418.53
214.81	23514.29
214.883	23606.73
214.957	23672.84
215.031	23743.39
215.105	23807.77
215.178	23877.02
215.252	23960.26
215.326	24004.68
215.4	24066.08
215.473	24098.4
215.547	24149.77
215.621	24209.68
215.694	24274.18
215.768	24313.93
215.842	24372.1
215.915	24430.05
215.989	24469.32
216.063	24516.41
216.136	24577.05
216.21	24646.76
216.284	24718.79
216.357	24779.05
216.431	24845.92
216.504	24919.06
216.578	25000.61
216.652	25058.12
216.725	25109.5
216.799	25175.62
216.873	25238.25
216.946	25297.21
217.02	25347.78
217.093	25404.05
217.167	25427.89
217.24	25459.17
217.314	25513.79
217.387	25553.41
217.461	25585.32
217.535	25647.67
217.608	25679.29
217.682	25723.31
217.755	25762.5
217.829	25794.55
217.902	25839.44
217.976	25879.17
218.049	25910.88
218.123	25937.34
218.196	25983.53
218.27	26019.78
218.343	26039.48
218.417	26071.19
218.49	26098.71
218.563	26136.61
218.637	26171.03
218.71	26241.66
218.784	26289.22
218.857	26328.71
218.931	26375.59
219.004	26412.67
219.077	26447.73
219.151	26484.18
219.224	26505.76
219.298	26535.51
219.371	26563.95
219.444	26576.16
219.518	26588.18
219.591	26619.67
219.665	26679.46
219.738	26709.16
219.811	26713.16
219.885	26744.07
219.958	26777.15
220.031	26789.51
220.105	26818.1
220.178	26836.98
220.251	26836.11
220.325	26863.64
220.398	26883.35
220.471	26899.62
220.544	26912.66
220.618	26917.11
220.691	26938.4
220.764	26949.27
220.838	26961.58
220.911	26973.85
220.984	27005.92
221.057	27035.28
221.131	27040.55
221.204	27004.27
221.277	27016.78
221.35	27058.94
221.424	27053.34
221.497	27048.89
221.57	27062.42
221.643	27071.25
221.716	27077.34
221.79	27068.07
221.863	27056.72
221.936	27039.43
222.009	27025.28
222.082	27033.63
222.155	27017.55
222.229	27024.46
222.302	27023.39
222.375	27019.63
222.448	27023.44
222.521	27020.16
222.594	26995
222.667	26980.56
222.74	26984.27
222.814	26985.53
222.887	26962.35
222.96	26969.11
223.033	26974.47
223.106	26964.91
223.179	26957.57
223.252	26948.58
223.325	26939.84
223.398	26922.31
223.471	26918.83
223.544	26911.88
223.617	26893.43
223.69	26892.56
223.763	26860.83
223.837	26858.22
223.91	26854.55
223.983	26814.81
224.056	26785.83
224.129	26787.81
224.202	26779.99
224.275	26761.59
224.348	26726.29
224.42	26702.68
224.493	26659.8
224.566	26620.97
224.639	26603.69
224.712	26569.35
224.785	26533.86
224.858	26512.13
224.931	26480.75
225.004	26443.62
225.077	26426.77
225.15	26378.92
225.223	26347.44
225.296	26346.28
225.369	26293.61
225.442	26253.15
225.514	26229.5
225.587	26211.92
225.66	26185.75
225.733	26156.88
225.806	26135.2
225.879	26108.02
225.952	26078
226.025	26066.65
226.097	26057.04
226.17	26037.01
226.243	25992.55
226.316	25964.94
226.389	25938.01
226.461	25930.04
226.534	25911.85
226.607	25866.86
226.68	25861.21
226.753	25831.82
226.825	25783.3
226.898	25782.19
226.971	25755.16
227.044	25727.7
227.117	25693.77
227.189	25660.12
227.262	25639.56
227.335	25610.6
227.407	25574.02
227.48	25546.12
227.553	25514.37
227.626	25473.58
227.698	25439.22
227.771	25423.2
227.844	25394.68
227.916	25363.79
227.989	25311.05
228.062	25270.03
228.134	25267.23
228.207	25233.74
228.28	25201.31
228.352	25171.64
228.425	25135.54
228.498	25113.49
228.57	25074.02
228.643	25049.22
228.716	25014.33
228.788	24967.62
228.861	24917.68
228.934	24899.49
229.006	24862.68
229.079	24833.06
229.151	24799.96
229.224	24750.75
229.296	24715.1
229.369	24697.24
229.442	24676.88
229.514	24639.31
229.587	24628.84
229.659	24576.92
229.732	24544.79
229.804	24522.02
229.877	24501.23
229.949	24474.74
230.022	24458.87
230.094	24445.89
230.167	24417.48
230.239	24379.03
230.312	24342.76
230.384	24342.33
230.457	24304.07
230.529	24279.33
230.602	24252.94
230.674	24229.07
230.747	24212.19
230.819	24196.8
230.892	24142.25
230.964	24111.23
231.037	24081.18
231.109	24036.09
231.181	24011.97
231.254	23963.74
231.326	23921.64
231.399	23885.56
231.471	23844.75
231.544	23787.12
231.616	23754.56
231.688	23715.01
231.761	23679.14
231.833	23652.27
231.905	23592.18
231.978	23562.28
232.05	23519.32
232.122	23477.65
232.195	23417.71
232.267	23391.71
232.339	23343.54
232.412	23322.9
232.484	23272.17
232.556	23237.31
232.629	23224
232.701	23192.66
232.773	23156.16
232.846	23110.84
232.918	23070.57
232.99	23040.24
233.062	23013.53
233.135	22973.56
233.207	22921.39
233.279	22885.18
233.351	22847.19
233.424	22797.62
233.496	22744.16
233.568	22732.78
233.64	22687.84
233.713	22658.82
233.785	22616.97
233.857	22587.27
233.929	22528.55
234.001	22513.22
234.074	22486.76
234.146	22416.37
234.218	22372.16
234.29	22336.92
234.362	22292.48
234.434	22243.45
234.507	22188.11
234.579	22123.27
234.651	22084.03
234.723	22063.59
234.795	22031.39
234.867	21993.55
234.939	21983.67
235.012	21952.77
235.084	21911.84
235.156	21878.39
235.228	21838.43
235.3	21795.72
235.372	21749.3
235.444	21719.32
235.516	21652.65
235.588	21611.73
235.66	21580.98
235.732	21527.62
235.804	21538.71
235.876	21519.24
235.948	21493.79
236.02	21455.86
236.092	21414.12
236.164	21368.96
236.236	21313.48
236.308	21262.92
236.38	21221.95
236.452	21173.27
236.524	21130.91
236.596	21108.98
236.668	21080.59
236.74	21033.84
236.812	20997.55
236.884	20974.56
236.956	20944
237.028	20902.89
237.1	20865.15
237.172	20845.97
237.244	20828.77
237.316	20755.51
237.388	20699.36
237.46	20649.04
237.532	20623.55
237.604	20581.04
237.675	20552.37
237.747	20520.47
237.819	20475.74
237.891	20439.74
237.963	20384.47
238.035	20337.19
238.107	20246.78
238.178	20207.55
238.25	20170.97
238.322	20153.14
238.394	20091.94
238.466	20048.66
238.538	20008.71
238.609	19968.67
238.681	19901.44
238.753	19846.69
238.825	19810.55
238.897	19777.64
238.968	19752.96
239.04	19703.81
239.112	19695.52
239.184	19649.4
239.255	19610.22
239.327	19576.44
239.399	19528.83
239.471	19493.65
239.542	19465.22
239.614	19446.28
239.686	19377.17
239.758	19356.98
239.829	19303.35
239.901	19269.66
239.973	19231.25
240.044	19202.97
240.116	19162.78
240.188	19126.01
240.259	19093.53
240.331	19038.45
240.403	19011.89
240.474	18956.33
240.546	18901.73
240.618	18843.13
240.689	18792.73
240.761	18748.34
240.833	18725.65
240.904	18686.76
240.976	18648.69
241.048	18613.41
241.119	18584.5
241.191	18564.02
241.262	18531.01
241.334	18481.52
241.405	18439.06
241.477	18390.82
241.549	18349.33
241.62	18310.2
241.692	18279.7
241.763	18248.9
241.835	18212.66
241.906	18166.79
241.978	18110.55
242.049	18087.99
242.121	18057.63
242.192	18028.57
242.264	17982.36
242.335	17923.37
242.407	17890.17
242.478	17853.88
242.55	17818.6
242.621	17763.76
242.693	17716.2
242.764	17674.85
242.836	17632.15
242.907	17601.07
242.979	17570.75
243.05	17530.03
243.122	17491.91
243.193	17449.21
243.264	17395.48
243.336	17360.83
243.407	17335.14
243.479	17327.19
243.55	17288.39
243.622	17257.74
243.693	17228.87
243.764	17207.04
243.836	17167.96
243.907	17126.51
243.978	17078.12
244.05	17044.39
244.121	16993.2
244.192	16963.76
244.264	16903.95
244.335	16869.15
244.407	16817.34
244.478	16782.78
244.549	16748.04
244.62	16703.26
244.692	16663.93
244.763	16634.53
244.834	16588.7
244.906	16537.9
244.977	16498.09
245.048	16486.19
245.119	16434.71
245.191	16383.14
245.262	16327.47
245.333	16306.94
245.405	16282.07
245.476	16255.08
245.547	16222.16
245.618	16202.88
245.689	16173.58
245.761	16152.57
245.832	16119.65
245.903	16097.14
245.974	16066.24
246.045	16030.96
246.117	16016.69
246.188	15981.65
246.259	15935.77
246.33	15906.46
246.401	15876.67
246.473	15833.29
246.544	15780.23
246.615	15761.48
246.686	15731.02
246.757	15717.18
246.828	15675.92
246.899	15655.34
246.97	15619.19
247.042	15568.77
247.113	15546.6
247.184	15529.68
247.255	15485.14
247.326	15452.22
247.397	15416.75
247.468	15381.61
247.539	15357.27
247.61	15311.52
247.681	15288.1
247.752	15274.5
247.823	15229.96
247.894	15193.04
247.965	15148.21
248.037	15109.5
248.108	15064.24
248.179	15031.22
248.25	14987.41
248.321	14962.29
248.392	14922.19
248.463	14903.44
248.534	14874.22
248.605	14846.17
248.675	14813.2
248.746	14794.5
248.817	14779.22
248.888	14748.9
248.959	14700.84
249.03	14680.11
249.101	14648.92
249.172	14614.21
249.243	14557.09
249.314	14547.45
249.385	14521.27
249.456	14504.06
249.527	14479.05
249.598	14456.73
249.669	14431.23
249.739	14411.61
249.81	14393.38
249.881	14341.03
249.952	14313.41
250.023	14285.21
250.094	14237.73
250.165	14197
250.235	14168.17
250.306	14141.56
250.377	14106.03
250.448	14092.29
250.519	14039.99
250.59	14023.74
250.66	13992.6
250.731	13982.91
250.802	13954.76
250.873	13937.17
250.944	13914.17
251.014	13881.1
251.085	13878.55
251.156	13854.11
251.227	13842.87
251.297	13822.58
251.368	13813.81
251.439	13788.35
251.51	13779.29
251.58	13749.26
251.651	13718.16
251.722	13706.55
251.792	13647.83
251.863	13622.62
251.934	13609.6
252.005	13614.62
252.075	13600.78
252.146	13595.57
252.217	13581.06
252.287	13567.9
252.358	13536.09
252.429	13525.53
252.499	13502.1
252.57	13475.4
252.641	13459.34
252.711	13436.83
252.782	13401.01
252.852	13397.88
252.923	13381.59
252.994	13356.13
253.064	13351.21
253.135	13322.77
253.205	13290.23
253.276	13296.84
253.347	13299.06
253.417	13262.76
253.488	13233.74
253.558	13191.89
253.629	13157.76
253.699	13141.61
253.77	13121.32
253.841	13097.26
253.911	13077.74
253.982	13055.66
254.052	13043.13
254.123	13028.23
254.193	13005.62
254.264	13019.51
254.334	12991.98
254.405	12954.67
254.475	12923.77
254.546	12895.33
254.616	12888.39
254.687	12872.62
254.757	12849.97
254.827	12813.72
254.898	12806.05
254.968	12777.66
255.039	12752.93
255.109	12746.23
255.18	12712.92
255.25	12673.97
255.321	12666.84
255.391	12629.04
255.461	12629.09
255.532	12572.84
255.602	12547.72
255.673	12501.06
255.743	12464.37
255.813	12415.16
255.884	12409.81
255.954	12399.25
256.024	12398.72
256.095	12381.17
256.165	12349.75
256.235	12330.56
256.306	12306.6
256.376	12291.66
256.446	12287.27
256.517	12273.44
256.587	12261.44
256.657	12246.25
256.728	12226.97
256.798	12206.82
256.868	12183.16
256.938	12148.5
257.009	12147.34
257.079	12132.45
257.149	12142.47
257.219	12103.28
257.29	12090.41
257.36	12057.54
257.43	12046.26
257.5	12005.05
257.571	11974.54
257.641	11956.17
257.711	11930.72
257.781	11917.37
257.852	11899.49
257.922	11858.33
257.992	11843.96
258.062	11823.77
258.132	11812.92
258.202	11789.74
258.273	11772.1
258.343	11772.67
258.413	11745.83
258.483	11727.13
258.553	11692.13
258.623	11663.02
258.693	11647.21
258.764	11642.06
258.834	11632.27
258.904	11614.63
258.974	11585.81
259.044	11564.17
259.114	11551.49
259.184	11539.49
259.254	11524.75
259.324	11493.95
259.394	11484.31
259.464	11478.81
259.535	11450.09
259.605	11422.95
259.675	11405.07
259.745	11386.13
259.815	11355.72
259.885	11341.31
259.955	11350.27
260.025	11328.25
260.095	11305.65
260.165	11293.79
260.235	11292.3
260.305	11267.77
260.375	11236.73
260.445	11253.41
260.515	11257.41
260.585	11248.78
260.655	11229.65
260.725	11221.4
260.795	11205.07
260.865	11202.8
260.934	11176.78
261.004	11169.69
261.074	11158.8
261.144	11159.72
261.214	11148.83
261.284	11137.98
261.354	11131.33
261.424	11095.96
261.494	11097.88
261.564	11084.63
261.634	11078.75
261.703	11044.92
261.773	11034.42
261.843	11025.36
261.913	10997.5
261.983	10963.43
262.053	10957.99
262.123	10942.33
262.192	10910.38
262.262	10903.78
262.332	10870.19
262.402	10862.24
262.472	10841.13
262.541	10801.04
262.611	10790.83
262.681	10770.97
262.751	10756.18
262.821	10739.36
262.89	10715.51
262.96	10706.79
263.03	10712.04
263.1	10697.58
263.169	10682.84
263.239	10664.96
263.309	10664.63
263.379	10655.76
263.448	10641.79
263.518	10628.87
263.588	10613.94
263.657	10620.97
263.727	10618.71
263.797	10603.14
263.867	10586.52
263.936	10561.47
264.006	10562.29
264.076	10540.6
264.145	10521.28
264.215	10500.61
264.285	10497.87
264.354	10466.46
264.424	10437.6
264.494	10404.3
264.563	10379.1
264.633	10382.72
264.702	10373.03
264.772	10340.71
264.842	10322.06
264.911	10315.32
264.981	10279.61
265.05	10260.49
265.12	10237.79
265.19	10218.86
265.259	10216.4
265.329	10202.48
265.398	10195.78
265.468	10207.35
265.537	10187.26
265.607	10180.32
265.676	10176.47
265.746	10163.17
265.815	10167.46
265.885	10159.41
265.955	10139.85
266.024	10122.99
266.094	10088.07
266.163	10096.35
266.232	10098.33
266.302	10080.6
266.371	10070.82
266.441	10063.02
266.51	10055.89
266.58	10039.03
266.649	10023.86
266.719	10020.24
266.788	10012.97
266.858	10014.94
266.927	9981.61
266.996	9975.73
267.066	9968.7
267.135	9943.22
267.205	9932.72
267.274	9921.01
267.343	9916.39
267.413	9903.77
267.482	9904.59
267.552	9910.22
267.621	9871.69
267.69	9843.27
267.76	9839.75
267.829	9828.72
267.898	9818.61
267.968	9796.74
268.037	9791.74
268.106	9780.13
268.176	9754.36
268.245	9744.43
268.314	9725.89
268.384	9719.44
268.453	9709.23
268.522	9699.93
268.592	9705.52
268.661	9686.88
268.73	9680.04
268.799	9661.59
268.869	9673.05
268.938	9648.73
269.007	9623.69
269.076	9621.09
269.146	9616.9
269.215	9604.86
269.284	9610.69
269.353	9590.61
269.422	9584.59
269.492	9573.22
269.561	9537.49
269.63	9531.33
269.699	9507.73
269.768	9494.82
269.838	9488.9
269.907	9484.27
269.976	9459.14
270.045	9424.95
270.114	9424.56
270.183	9410.21
270.253	9403.04
270.322	9367.93
270.391	9357.72
270.46	9362.83
270.529	9362.64
270.598	9363.65
270.667	9353.1
270.736	9328.25
270.806	9325.51
270.875	9328.73
270.944	9317.03
271.013	9340.39
271.082	9333.93
271.151	9330.37
271.22	9299.65
271.289	9284.92
271.358	9269.75
271.427	9259.35
271.496	9252.42
271.565	9232.68
271.634	9220.98
271.703	9243.95
271.772	9249.77
271.841	9240.82
271.91	9222.47
271.979	9211.26
272.048	9185.11
272.117	9183.52
272.186	9169.51
272.255	9171.73
272.324	9167.15
272.393	9157.09
272.462	9136.19
272.531	9125.5
272.6	9116.55
272.669	9128.44
272.738	9112.69
272.807	9106.44
272.876	9088.34
272.945	9117.18
273.013	9119.2
273.082	9120.98
273.151	9076.78
273.22	9071.29
273.289	9059.01
273.358	9062.87
273.427	9055.02
273.496	9058.15
273.564	9053.62
273.633	9054.97
273.702	9029.5
273.771	9015.4
273.84	9005.09
273.909	9005.87
273.977	9000.95
274.046	8987.91
274.115	8995.27
274.184	8984.64
274.253	8981.41
274.322	8994.75
274.39	8958.97
274.459	8942.75
274.528	8914.3
274.597	8910.16
274.665	8907.32
274.734	8920.51
274.803	8914.16
274.872	8909.68
274.94	8888.84
275.009	8934.83
275.078	8923.42
275.147	8916.73
275.215	8911.44
275.284	8924.87
275.353	8913.79
275.421	8895.6
275.49	8914.33
275.559	8899.31
275.627	8892.71
275.696	8879.33
275.765	8875.39
275.833	8871.25
275.902	8872.74
275.971	8884.1
276.039	8894.25
276.108	8897
276.177	8892.52
276.245	8882.27
276.314	8868.79
276.383	8881.16
276.451	8819.47
276.52	8817.31
276.588	8835.12
276.657	8837.38
276.725	8827.41
276.794	8826.79
276.863	8835.79
276.931	8808.59
277	8817.02
277.068	8831.36
277.137	8850.32
277.205	8845.61
277.274	8861.73
277.342	8870.44
277.411	8851.24
277.48	8838.63
277.548	8824.77
277.617	8824.43
277.685	8808.45
277.754	8811.15
277.822	8799.26
277.89	8816.49
277.959	8809.42
278.027	8789.35
278.096	8782.27
278.164	8806.53
278.233	8804.71
278.301	8798.06
278.37	8806.15
278.438	8790.89
278.507	8791.85
278.575	8767.35
278.643	8771.15
278.712	8752.43
278.78	8737.61
278.849	8751.61
278.917	8762.58
278.985	8757.72
279.054	8754.02
279.122	8770.19
279.191	8768.12
279.259	8766.1
279.327	8738.76
279.396	8757.82
279.464	8757.38
279.532	8756.23
279.601	8742.99
279.669	8732.69
279.737	8740.97
279.806	8742.99
279.874	8751.27
279.942	8746.21
280.011	8744.34
280.079	8750.4
280.147	8768.02
280.215	8775.24
280.284	8770.47
280.352	8756.71
280.42	8765.8
280.488	8761.13
280.557	8758.2
280.625	8760.56
280.693	8757.67
280.761	8771.1
280.83	8753.19
280.898	8765.08
280.966	8751.56
281.034	8724.46
281.102	8710.21
281.171	8702.42
281.239	8708.24
281.307	8699.96
281.375	8692.36
281.443	8708.43
281.512	8698.81
281.58	8701.17
281.648	8680.18
281.716	8680.13
281.784	8679.94
281.852	8673.01
281.92	8671.28
281.989	8676.38
282.057	8667.04
282.125	8716.68
282.193	8708.78
282.261	8705.17
282.329	8697.66
282.397	8700.84
282.465	8704.45
282.533	8725.19
282.601	8718.41
282.67	8698.24
282.738	8690.35
282.806	8704.88
282.874	8696.36
282.942	8706.18
283.01	8697.85
283.078	8703.29
283.146	8698.82
283.214	8710.03
283.282	8713.98
283.35	8723.56
283.418	8714.07
283.486	8708.49
283.554	8658.91
283.622	8654.09
283.69	8654.57
283.758	8653.95
283.826	8660.11
283.894	8673.1
283.962	8691.54
284.03	8700.64
284.098	8700.44
284.165	8696.88
284.233	8687.11
284.301	8678.69
284.369	8666.7
284.437	8661.12
284.505	8658.43
284.573	8674.69
284.641	8661.89
284.709	8664.63
284.777	8651.3
284.845	8661.22
284.912	8668.24
284.98	8672.67
285.048	8675.17
285.116	8686.05
285.184	8695.92
285.252	8698.42
285.319	8677.39
285.387	8666.51
285.455	8648.27
285.523	8660.21
285.591	8661.79
285.659	8664.68
285.726	8681.53
285.794	8670.03
285.862	8666.7
285.93	8668.77
285.997	8664.2
286.065	8654.96
286.133	8648.94
286.201	8644.08
286.269	8628.49
286.336	8619.59
286.404	8615.02
286.472	8622.72
286.539	8597.89
286.607	8579.12
286.675	8575.07
286.743	8587.49
286.81	8581.04
286.878	8605.49
286.946	8592.01
287.013	8589.56
287.081	8586.72
287.149	8567.42
287.216	8583.59
287.284	8578.44
287.352	8578.25
287.419	8571.89
287.487	8592.78
287.555	8596.05
287.622	8591.96
287.69	8597.16
287.758	8611.5
287.825	8607.27
287.893	8595.96
287.96	8604.38
288.028	8617.71
288.096	8625.5
288.163	8631.42
288.231	8616.07
288.298	8609.77
288.366	8620.16
288.433	8618.09
288.501	8611.21
288.569	8615.16
288.636	8609.72
288.704	8621.41
288.771	8631.04
288.839	8626.18
288.906	8617.95
288.974	8623.1
289.041	8626.61
289.109	8622.86
289.176	8634.94
289.244	8639.8
289.311	8651.69
289.379	8656.84
289.446	8659.39
289.514	8654.77
289.581	8647.64
289.649	8650.48
289.716	8648.8
289.783	8647.26
289.851	8662.18
289.918	8662.51
289.986	8672.19
290.053	8678.3
290.121	8685.57
290.188	8681.86
290.255	8708.19
290.323	8701.45
290.39	8696.64
290.458	8700.1
290.525	8710.98
290.592	8706.7
290.66	8706.98
290.727	8706.89
290.794	8720.85
290.862	8718.87
290.929	8718.49
290.996	8718.25
291.064	8734.95
291.131	8746.98
291.198	8753.58
291.266	8758.24
291.333	8760.84
291.4	8767.77
291.468	8779.09
291.535	8767.05
291.602	8776.63
291.669	8769.22
291.737	8775.04
291.804	8775.67
291.871	8789.67
291.938	8797.23
292.006	8818.17
292.073	8832.95
292.14	8836.94
292.207	8832.03
292.275	8838.58
292.342	8852.4
292.409	8879.64
292.476	8900.25
292.543	8900.3
292.611	8902.12
292.678	8922.49
292.745	8949.2
292.812	8955.65
292.879	8958.5
292.946	8962.88
293.014	8976.55
293.081	8988.53
293.148	9000.71
293.215	9019.05
293.282	9013.57
293.349	9022.23
293.416	9007.74
293.484	9025.84
293.551	9035.52
293.618	9055.11
293.685	9078.32
293.752	9077.5
293.819	9072.01
293.886	9062.81
293.953	9065.89
294.02	9083.47
294.087	9082.6
294.154	9073.5
294.221	9091.22
294.288	9089.29
294.356	9110.57
294.423	9116.93
294.49	9104.84
294.557	9122.37
294.624	9113.51
294.691	9135.9
294.758	9136.38
294.825	9146.87
294.892	9139.17
294.959	9143.69
295.026	9152.65
295.093	9145.48
295.16	9142.64
295.226	9142.64
295.293	9164.98
295.36	9171.43
295.427	9179.28
295.494	9191.8
295.561	9202.77
295.628	9221.94
295.695	9237.11
295.762	9239.47
295.829	9249.44
295.896	9270.76
295.963	9279.91
296.03	9292.82
296.096	9299.03
296.163	9306.73
296.23	9326.14
296.297	9332.25
296.364	9328.5
296.431	9330.13
296.498	9322.62
296.564	9349.01
296.631	9356.86
296.698	9338.75
296.765	9360.9
296.832	9350.5
296.899	9340.87
296.965	9356.42
297.032	9342.41
297.099	9356.47
297.166	9367.98
297.233	9357.38
297.299	9345.25
297.366	9344.14
297.433	9346.17
297.5	9355.7
297.566	9360.8
297.633	9347.32
297.7	9348.72
297.767	9346.89
297.833	9353.82
297.9	9364.41
297.967	9344.63
298.033	9356.47
298.1	9386.95
298.167	9376.02
298.234	9382.43
298.3	9389.84
298.367	9384.35
298.434	9388.69
298.5	9381.95
298.567	9371.64
298.634	9380.5
298.7	9401.25
298.767	9403.28
298.834	9413.53
298.9	9410.07
298.967	9402.07
299.033	9412.04
299.1	9438.19
299.167	9452.73
299.233	9454.08
299.3	9471.95
299.366	9494.14
299.433	9510.66
299.5	9483.89
299.566	9491.25
299.633	9515
299.699	9526.51
299.766	9529.11
299.832	9534.26
299.899	9542.11
299.965	9559.54
300.032	9554.15
300.099	9561.32
300.165	9569.85
300.232	9568.79
300.298	9575.15
300.365	9590.46
300.431	9596.14
300.498	9586.27
300.564	9595.27
300.631	9605.87
300.697	9612.61
300.763	9613.05
300.83	9606.4
300.896	9621.67
300.963	9631.39
301.029	9631.49
301.096	9633.46
301.162	9645.5
301.229	9644.64
301.295	9633.37
301.361	9636.07
301.428	9642.42
301.494	9630.82
301.561	9631.15
301.627	9631.06
301.693	9625.28
301.76	9626.77
301.826	9625.76
301.892	9637.56
301.959	9646.23
302.025	9634.96
302.092	9630.14
302.158	9639.24
302.224	9649.6
302.291	9643.72
302.357	9637.08
302.423	9622.53
302.49	9612.85
302.556	9624.99
302.622	9620.85
302.688	9632.7
302.755	9642.38
302.821	9649.55
302.887	9654.75
302.954	9656.63
303.02	9671.03
303.086	9676.71
303.152	9678.5
303.219	9671.66
303.285	9674.11
303.351	9680.18
303.417	9685.19
303.483	9676.33
303.55	9668.38
303.616	9662.51
303.682	9662.75
303.748	9655.96
303.815	9678.11
303.881	9691.17
303.947	9676.96
304.013	9679.17
304.079	9675.66
304.145	9655.48
304.212	9650.47
304.278	9641.61
304.344	9640.31
304.41	9626.39
304.476	9620.32
304.542	9610.69
304.608	9618.59
304.674	9600.77
304.741	9591.9
304.807	9592.58
304.873	9599.13
304.939	9610.69
305.005	9589.93
305.071	9584.1
305.137	9585.5
305.203	9561.47
305.269	9557.81
305.335	9570.62
305.401	9564.89
305.467	9562.82
305.533	9574.86
305.599	9575.92
305.666	9592.63
305.732	9590.65
305.798	9607.07
305.864	9634.53
305.93	9638.96
305.996	9643.39
306.062	9647.68
306.128	9651.29
306.194	9639.68
306.259	9631.3
306.325	9623.93
306.391	9637.03
306.457	9648.25
306.523	9653.55
306.589	9671.71
306.655	9662.7
306.721	9639.49
306.787	9626.39
306.853	9636.65
306.919	9615.41
306.985	9619.12
307.051	9607.9
307.117	9599.28
307.183	9590.9
307.248	9558.29
307.314	9562.24
307.38	9556.12
307.446	9555.93
307.512	9545.09
307.578	9551.45
307.644	9549.52
307.709	9550.54
307.775	9546.06
307.841	9545.72
307.907	9541.91
307.973	9524.91
308.039	9530.84
308.104	9534.64
308.17	9542.54
308.236	9528.72
308.302	9536.57
308.368	9517.88
308.433	9515.42
308.499	9510.61
308.565	9492.98
308.631	9493.9
308.696	9472.95
308.762	9461.2
308.828	9461.92
308.894	9442.71
308.959	9422.44
309.025	9414.73
309.091	9411.12
309.156	9399.47
309.222	9397.01
309.288	9388.49
309.354	9368.94
309.419	9358.78
309.485	9348.09
309.551	9344.81
309.616	9330.99
309.682	9327.77
309.748	9327.19
309.813	9324.93
309.879	9312.22
309.945	9301.91
310.01	9302.83
310.076	9306.29
310.141	9304.22
310.207	9287.85
310.273	9292.76
310.338	9292.91
310.404	9271.82
310.469	9255.64
310.535	9251.35
310.601	9226.85
310.666	9229.69
310.732	9236.52
310.797	9225.06
310.863	9216.49
310.928	9213.56
310.994	9214.62
311.059	9210.81
311.125	9205.03
311.191	9212.35
311.256	9203.54
311.322	9211.54
311.387	9186.84
311.453	9607.72
311.518	9577.59
311.584	9575.71
311.649	9574.17
311.715	9565.65
311.78	9574.6
311.846	9561.89
311.911	9563.53
311.976	9565.36
312.042	9552.79
312.107	9540.8
312.173	9531.27
312.238	9521.83
312.304	9515.62
312.369	9501.9
312.434	9491.93
312.5	9479.8
312.565	9446
312.631	9448.31
312.696	9441.81
312.761	9448.51
312.827	9018.91
312.892	9058.58
312.958	9059.35
313.023	9053.52
313.088	9054
313.154	9040.09
313.219	9033.74
313.284	9027.33
313.35	9029.07
313.415	9017.37
313.48	9006.54
313.546	9012.27
313.611	9026.76
313.676	9017.08
313.741	9011.74
313.807	9017.28
313.872	9023.24
313.937	9028.83
314.003	9043.61
314.068	9040.91
314.133	9037.59
314.198	9024.74
314.264	9000.9
314.329	8988.29
314.394	8985.06
314.459	8987.76
314.525	9010.77
314.59	9007.83
314.655	8998.54
314.72	9000.81
314.785	9001.82
314.851	8998.16
314.916	8978.04
314.981	8954.55
315.046	8943.52
315.111	8933.27
315.176	8920.18
315.242	8924.99
315.307	8927.69
315.372	8905.44
315.437	8893.84
315.502	8888.88
315.567	8894.71
315.632	8883.49
315.698	8880.41
315.763	8879.74
315.828	8863.47
315.893	8851.77
315.958	8851.05
316.023	8839.35
316.088	8821.25
316.153	8798.49
316.218	8794.92
316.283	8776.59
316.348	8765.28
316.413	8761.96
316.479	8748.05
316.544	8714.41
316.609	8679.37
316.674	8637.94
316.739	8604.59
316.804	8573.94
316.869	8540.98
316.934	8503.05
316.999	8469.13
317.064	8420.73
317.129	8377.94
317.194	8339.36
317.259	8292.3
317.324	8239.09
317.389	8193.63
317.454	8152.15
317.518	8113.96
317.583	8083.5
317.648	8061.18
317.713	8025.49
317.778	7968.11
317.843	7937.32
317.908	7902.5
317.973	7868.4
318.038	7842.77
318.103	7802.52
318.168	7774.1
318.233	7740.97
318.297	7695.91
318.362	7657.49
318.427	7619.28
318.492	7589.75
318.557	7543.6
318.622	7514.37
318.687	7492.5
318.751	7450.2
318.816	7416.12
318.881	7389.44
318.946	7338.25
319.011	7297.44
319.075	7253.75
319.14	7216.8
319.205	7171.68
319.27	7135.06
319.335	7086.24
319.399	7042.51
319.464	7017.48
319.529	6959.16
319.594	6921.06
319.658	6892.47
319.723	6853.28
319.788	6822.35
319.853	6762.78
319.917	6733.2
319.982	6679.7
320.047	6641.03
320.112	6614.57
320.176	6559.02
320.241	6520.02
320.306	6491.16
320.37	6444.26
320.435	6413.19
320.5	6390.34
320.564	6353.57
320.629	6308.41
320.694	6281.63
320.758	6240.59
320.823	6189.92
320.888	6163.09
320.952	6113.72
321.017	6071.63
321.082	6032.67
321.146	5996.02
321.211	5965.75
321.275	5925.65
321.34	5881.34
321.405	5836.39
321.469	5788.53
321.534	5750.41
321.598	5699.77
321.663	5665.38
321.727	5635.36
321.792	5584.11
321.857	5533.38
321.921	5495.27
321.986	5454.01
322.05	5388.69
322.115	5351.83
322.179	5309.19
322.244	5256.96
322.308	5223.85
322.373	5177.91
322.437	5136.42
322.502	5108.48
322.566	5065.65
322.631	5027.43
322.695	4989.94
322.76	4944.16
322.824	4908.44
322.889	4866.79
322.953	4823.38
323.018	4757.11
323.082	4691.73
323.146	4642.16
323.211	4590.86
323.275	4542.86
323.34	4500.67
323.404	4469.53
323.468	4422.78
323.533	4383.51
323.597	4334.89
323.662	4283.8
323.726	4244.44
323.79	4200.35
323.855	4136.92
323.919	4087.48
323.983	4040.82
324.048	3972.13
324.112	4151.48
324.177	4021.22
324.241	3814.84
324.305	3611.9
324.37	3413.21
324.434	3222.65
324.498	3181.8
324.562	3135.75
324.627	3079.28
324.691	3024.32
324.755	2963.05
324.82	2891.2
324.884	2815.68
324.948	2749.62
325.012	2656.24
325.077	2542.42
