Data from 20250703_urea_0.1M_MAYP1162681_17-01-05-055.txt Node
Date: Thu Jul 03 17:01:05 BST 2025
User: adleo
Spectrometer: MAYP116268
Trigger mode: 0
Integration Time (sec): 1.000000E0
Scans to average: 1
Electric dark correction enabled: true
Nonlinearity correction enabled: true
Boxcar width: 10
XAxis mode: Wavelengths
Number of Pixels in Spectrum: 2068
>>>>>Begin Spectral Data<<<<<
179.565	1307.21
179.642	1366.35
179.718	1418.78
179.795	1461.73
179.871	1500.61
179.948	1522.02
180.024	1547.5
180.101	1572.58
180.177	1589.72
180.254	1614.32
180.33	1640.21
180.407	1700.51
180.483	1803.66
180.56	1902.54
180.636	1994.18
180.712	1981.33
180.789	1994.98
180.865	2008.72
180.942	2015.57
181.018	2027.88
181.095	2045.1
181.171	2051
181.248	2054.33
181.324	2068.22
181.4	2076.69
181.477	2086.54
181.553	2100.66
181.63	2122.54
181.706	2137.05
181.782	2143.95
181.859	2141.38
181.935	2145.9
182.011	2144
182.088	2163.27
182.164	2183.92
182.24	2197.48
182.317	2206.71
182.393	2201.28
182.469	2218.46
182.546	2235.54
182.622	2241.44
182.698	2234.78
182.775	2245.67
182.851	2258.66
182.927	2252.9
183.003	2248.05
183.08	2243.44
183.156	2250.76
183.232	2242.62
183.308	2233.63
183.385	2241.77
183.461	2261.42
183.537	2260.04
183.613	2277.7
183.69	2267.18
183.766	2255.89
183.842	2265.94
183.918	2272.5
183.995	2287.02
184.071	2288.16
184.147	2279.5
184.223	2268.46
184.299	2283.46
184.375	2273.61
184.452	2281.7
184.528	2333.54
184.604	2346.29
184.68	2358.24
184.756	2367.62
184.832	2377.04
184.908	2382.27
184.985	2382.94
185.061	2367.95
185.137	2381.18
185.213	2368.62
185.289	2369.28
185.365	2362.57
185.441	2359.77
185.517	2371.43
185.593	2370.38
185.669	2369.72
185.745	2381.9
185.822	2401.08
185.898	2388.37
185.974	2397.98
186.05	2390.65
186.126	2353.8
186.202	2346.37
186.278	2341.47
186.354	2333.43
186.43	2339.09
186.506	2336.19
186.582	2335.24
186.658	2343.14
186.734	2319.58
186.81	2319.39
186.886	2322.25
186.962	2332.57
187.038	2330.72
187.114	2325.95
187.19	2331.52
187.266	2317.68
187.341	2319.96
187.417	2310.16
187.493	2311.21
187.569	2313.87
187.645	2304.88
187.721	2292.17
187.797	2298.83
187.873	2305.54
187.949	2298.64
188.025	2290.5
188.101	2294.83
188.176	2302.68
188.252	2297.4
188.328	2309.67
188.404	2311.05
188.48	2307.44
188.556	2303.01
188.632	2300.53
188.707	2300.53
188.783	2296.68
188.859	2294.73
188.935	2283.07
189.011	2292.44
189.086	2288.02
189.162	2278.12
189.238	2278.21
189.314	2276.26
189.39	2269.27
189.465	2261.56
189.541	2280.36
189.617	2265.42
189.693	2259.56
189.768	2261.71
189.844	2286.94
189.92	2276.81
189.996	2280.76
190.071	2293.99
190.147	2291.42
190.223	2304.27
190.298	2293.47
190.374	2281.81
190.45	2293.03
190.526	2301.89
190.601	2294.46
190.677	2294.22
190.753	2325.94
190.828	2328.41
190.904	2345.46
190.98	2364.74
191.055	2372.83
191.131	2358.88
191.207	2382.25
191.282	2391.62
191.358	2380.53
191.433	2366.48
191.509	2380.18
191.585	2381.61
191.66	2382.33
191.736	2389.85
191.811	2377.99
191.887	2398.66
191.963	2422.75
192.038	2429.03
192.114	2429.36
192.189	2434.36
192.265	2432.27
192.34	2409.31
192.416	2410.45
192.491	2406.55
192.567	2406.4
192.642	2409.12
192.718	2412.02
192.793	2400.02
192.869	2395.93
192.944	2400.59
193.02	2407.4
193.095	2412.97
193.171	2419.59
193.246	2418.88
193.322	2416.3
193.397	2418.64
193.473	2401.73
193.548	2381.4
193.624	2390.4
193.699	2386.12
193.775	2404.31
193.85	2407.26
193.925	2414.16
194.001	2410.83
194.076	2401.83
194.152	2391.26
194.227	2382.69
194.302	2371.99
194.378	2373.18
194.453	2370.8
194.529	2382.84
194.604	2368.85
194.679	2359.85
194.755	2338.82
194.83	2352.44
194.905	2350.82
194.981	2358.25
195.056	2351.2
195.131	2359.58
195.207	2356.34
195.282	2348.97
195.357	2327.92
195.433	2341.67
195.508	2331.87
195.583	2342.1
195.659	2356.91
195.734	2365.05
195.809	2365.71
195.884	2374.8
195.96	2377.75
196.035	2395.32
196.11	2390.41
196.185	2401.65
196.261	2407.98
196.336	2440.16
196.411	2422.92
196.486	2428.06
196.561	2423.63
196.637	2432.44
196.712	2449.92
196.787	2451.82
196.862	2467.67
196.937	2477.67
197.013	2486.81
197.088	2496.81
197.163	2519.72
197.238	2540.88
197.313	2542.5
197.388	2557.36
197.464	2590.8
197.539	2600.85
197.614	2591.71
197.689	2604.52
197.764	2621.95
197.839	2642.58
197.914	2636.72
197.989	2661.87
198.065	2676.92
198.14	2729.55
198.215	2757.95
198.29	2767.19
198.365	2782.11
198.44	2792.3
198.515	2821.89
198.59	2839.15
198.665	2867.84
198.74	2878.85
198.815	2875.94
198.89	2900.39
198.965	2935.77
199.04	2930.19
199.115	2946.2
199.19	2992.2
199.265	2997.11
199.34	3007.02
199.415	3043.23
199.49	3064.25
199.565	3076.69
199.64	3101.1
199.715	3097.52
199.79	3103.77
199.865	3113.36
199.94	3113.88
200.015	3150.37
200.09	3154.61
200.165	3158.43
200.24	3166.15
200.315	3206.74
200.39	3222.81
200.464	3227.44
200.539	3226.24
200.614	3246.08
200.689	3272.23
200.764	3282.16
200.839	3300.32
200.914	3306.28
200.989	3296.16
201.063	3314.05
201.138	3294.08
201.213	3298.42
201.288	3279.58
201.363	3285.73
201.438	3287.06
201.512	3304.38
201.587	3286.39
201.662	3293.78
201.737	3309
201.812	3316.02
201.886	3281.73
201.961	3293.95
202.036	3283.17
202.111	3282.65
202.186	3251.23
202.26	3234.77
202.335	3211.96
202.41	3209.05
202.485	3196.32
202.559	3177.09
202.634	3151.43
202.709	3164.73
202.784	3145.46
202.858	3149.14
202.933	3133.16
203.008	3130.39
203.082	3113.32
203.157	3120.38
203.232	3080.24
203.306	3062.21
203.381	3037.83
203.456	3021.67
203.53	3008.73
203.605	2998.72
203.68	2984.12
203.754	2992.22
203.829	2989.74
203.904	2987.41
203.978	2991.65
204.053	3011.54
204.127	3016.88
204.202	3037.25
204.277	3039.72
204.351	3058.13
204.426	3077.7
204.5	3099.88
204.575	3097.35
204.65	3142.11
204.724	3164.6
204.799	3213.52
204.873	3252.52
204.948	3294.95
205.022	3327.72
205.097	3367.99
205.171	3431.23
205.246	3492.46
205.32	3545.71
205.395	3605.66
205.469	3655.45
205.544	3728.43
205.618	3775.96
205.693	3857.87
205.767	3920.23
205.842	4017.84
205.916	4090.45
205.991	4162.28
206.065	4256.84
206.14	4358.52
206.214	4445.35
206.289	4534.37
206.363	4646.28
206.438	4747.27
206.512	4855.15
206.586	4983.86
206.661	5103.39
206.735	5195.68
206.81	5312.94
206.884	5451.09
206.958	5559.61
207.033	5701.5
207.107	5837.39
207.181	6007.43
207.256	6133.47
207.33	6283.38
207.405	6434.74
207.479	6595.9
207.553	6742.63
207.628	6862.04
207.702	7023.05
207.776	7164.6
207.851	7312.65
207.925	7477.54
207.999	7630.08
208.073	7785.13
208.148	7944.95
208.222	8085.41
208.296	8278.74
208.371	8453.13
208.445	8621.84
208.519	8825.21
208.593	9007.49
208.668	9161.45
208.742	9324.5
208.816	9494.16
208.89	9677.68
208.965	9843.33
209.039	10018.08
209.113	10207.52
209.187	10405.03
209.261	10575.66
209.336	10769.73
209.41	10965.15
209.484	11135.16
209.558	11331.43
209.632	11516.67
209.707	11694.4
209.781	11886.07
209.855	12066.71
209.929	12255.08
210.003	12431.73
210.077	12591.52
210.151	12808.19
210.226	13018.6
210.3	13218.3
210.374	13413.67
210.448	13586.97
210.522	13761.95
210.596	13930.23
210.67	14101.74
210.744	14305.74
210.818	14487.57
210.892	14662.55
210.966	14812.9
211.041	14991.35
211.115	15138.99
211.189	15317.68
211.263	15493.66
211.337	15647.28
211.411	15823.84
211.485	15980.77
211.559	16145.42
211.633	16293.97
211.707	16395.67
211.781	16545.51
211.855	16653.9
211.929	16798.97
212.003	16912.57
212.077	17077.59
212.151	17238.41
212.225	17389.36
212.299	17521.16
212.373	17653.21
212.447	17780.97
212.52	17948.68
212.594	18075.23
212.668	18219.71
212.742	18329.73
212.816	18445.15
212.89	18575.46
212.964	18688.66
213.038	18808.31
213.112	18949.61
213.186	19086.32
213.26	19188.25
213.333	19248.24
213.407	19362.79
213.481	19467.99
213.555	19601.77
213.629	19687.55
213.703	19783.5
213.777	19890.96
213.85	19984.5
213.924	20135.79
213.998	20244.12
214.072	20334
214.146	20424.94
214.219	20522
214.293	20620.27
214.367	20733.05
214.441	20836.09
214.515	20929.01
214.588	20995.9
214.662	21044.25
214.736	21112.97
214.81	21213.8
214.883	21335.3
214.957	21424.61
215.031	21496.47
215.105	21558.5
215.178	21628.34
215.252	21698.57
215.326	21748.56
215.4	21806.2
215.473	21815.65
215.547	21860.38
215.621	21928.55
215.694	22006.35
215.768	22052.72
215.842	22114.57
215.915	22152.7
215.989	22188.04
216.063	22232.29
216.136	22298.68
216.21	22363.51
216.284	22438.19
216.357	22501.06
216.431	22542.42
216.504	22609.01
216.578	22695.12
216.652	22766.81
216.725	22825.24
216.799	22895.59
216.873	22947.95
216.946	23012.51
217.02	23066.94
217.093	23128.22
217.167	23145.49
217.24	23176.15
217.314	23221.72
217.387	23257.49
217.461	23316.08
217.535	23383.25
217.608	23422.7
217.682	23465.33
217.755	23521.12
217.829	23550.35
217.902	23605.18
217.976	23651.04
218.049	23672.31
218.123	23700.04
218.196	23748.32
218.27	23788.98
218.343	23816.42
218.417	23867.3
218.49	23892.53
218.563	23945.34
218.637	23989.09
218.71	24063.9
218.784	24118.11
218.857	24175.94
218.931	24225.38
219.004	24247.04
219.077	24291.71
219.151	24336.32
219.224	24376.94
219.298	24412.3
219.371	24465.27
219.444	24477.52
219.518	24510.32
219.591	24553.79
219.665	24609.47
219.738	24644.06
219.811	24660.12
219.885	24692.16
219.958	24738.28
220.031	24766.94
220.105	24805.24
220.178	24829.75
220.251	24848.57
220.325	24876.94
220.398	24899.33
220.471	24929
220.544	24968.08
220.618	24981.74
220.691	24996.35
220.764	25017.34
220.838	25042.48
220.911	25050.78
220.984	25098.55
221.057	25127.5
221.131	25146.66
221.204	25127.98
221.277	25153.71
221.35	25211.42
221.424	25216.39
221.497	25219.24
221.57	25241.14
221.643	25261.32
221.716	25290.8
221.79	25295.82
221.863	25309.77
221.936	25314.98
222.009	25311.5
222.082	25324.15
222.155	25332.16
222.229	25374.48
222.302	25386.4
222.375	25395.43
222.448	25415.98
222.521	25412.99
222.594	25408.94
222.667	25397.41
222.74	25426.02
222.814	25418.11
222.887	25407.73
222.96	25442.14
223.033	25459.08
223.106	25458.84
223.179	25461.3
223.252	25469.94
223.325	25477.08
223.398	25482.15
223.471	25491.61
223.544	25511.88
223.617	25515.64
223.69	25512.17
223.763	25487.84
223.837	25493.15
223.91	25494.21
223.983	25475.63
224.056	25461.54
224.129	25461.88
224.202	25480.51
224.275	25466.32
224.348	25456.96
224.42	25442.04
224.493	25405.22
224.566	25387.41
224.639	25391.61
224.712	25369.94
224.785	25351.5
224.858	25327.38
224.931	25305.71
225.004	25284.52
225.077	25271.64
225.15	25233.13
225.223	25228.98
225.296	25245
225.369	25213.73
225.442	25202.88
225.514	25179.38
225.587	25176.58
225.66	25173.83
225.733	25153.99
225.806	25129.77
225.879	25107.09
225.952	25075.06
226.025	25073.9
226.097	25075.97
226.17	25060.29
226.243	25028.35
226.316	25003.6
226.389	25002.2
226.461	24986.85
226.534	24978.5
226.607	24945.74
226.68	24954.86
226.753	24922.3
226.825	24880.84
226.898	24872.35
226.971	24838.53
227.044	24830.81
227.117	24804.66
227.189	24785.65
227.262	24772.91
227.335	24769.63
227.407	24752.89
227.48	24736.73
227.553	24720.76
227.626	24683.32
227.698	24653.7
227.771	24635.99
227.844	24600.82
227.916	24570.82
227.989	24535.79
228.062	24509.31
228.134	24522
228.207	24486.97
228.28	24466.52
228.352	24439.02
228.425	24417.46
228.498	24407.57
228.57	24379.74
228.643	24375.39
228.716	24350.36
228.788	24316.35
228.861	24286.49
228.934	24274.86
229.006	24260.68
229.079	24230.82
229.151	24205.64
229.224	24171.78
229.296	24160.4
229.369	24171.11
229.442	24160.4
229.514	24127.8
229.587	24112.94
229.659	24061.28
229.732	24044.98
229.804	24035.28
229.877	24039.09
229.949	24016.91
230.022	24002.24
230.094	23972.1
230.167	23946.63
230.239	23910.41
230.312	23890.98
230.384	23885.24
230.457	23858.9
230.529	23835.95
230.602	23816.65
230.674	23795.39
230.747	23781.06
230.819	23761.68
230.892	23699.08
230.964	23682.1
231.037	23672.94
231.109	23644.58
231.181	23629.44
231.254	23604.22
231.326	23574.12
231.399	23547.6
231.471	23521.89
231.544	23472.22
231.616	23465.42
231.688	23429.4
231.761	23395.98
231.833	23357.7
231.905	23298.19
231.978	23273.89
232.05	23234.78
232.122	23204.01
232.195	23170.69
232.267	23163.94
232.339	23134.14
232.412	23121.32
232.484	23082.98
232.556	23043.93
232.629	23036.07
232.701	23015.91
232.773	22984.86
232.846	22952.37
232.918	22918.66
232.99	22897.88
233.062	22882.88
233.135	22855.59
233.207	22815.29
233.279	22792.63
233.351	22770.74
233.424	22741.19
233.496	22701.22
233.568	22695.58
233.64	22642.84
233.713	22607.5
233.785	22563.92
233.857	22537.01
233.929	22491.75
234.001	22469.62
234.074	22456.74
234.146	22408.58
234.218	22370.54
234.29	22331.98
234.362	22294.09
234.434	22240.38
234.507	22182.97
234.579	22129.12
234.651	22086.65
234.723	22070.65
234.795	22042.98
234.867	22005.04
234.939	21996.7
235.012	21965.66
235.084	21934.66
235.156	21918.47
235.228	21884.87
235.3	21842.6
235.372	21805.91
235.444	21789.72
235.516	21735.34
235.588	21689.94
235.66	21645.98
235.732	21612.14
235.804	21641.5
235.876	21623.37
235.948	21607.9
236.02	21585.3
236.092	21552.43
236.164	21515.51
236.236	21466.78
236.308	21420.84
236.38	21393.61
236.452	21341.99
236.524	21308.83
236.596	21286.9
236.668	21253.93
236.74	21211.66
236.812	21186.6
236.884	21151.71
236.956	21111.51
237.028	21073
237.1	21036.47
237.172	21021.91
237.244	21000.51
237.316	20920.65
237.388	20857.7
237.46	20804.69
237.532	20771.92
237.604	20731.1
237.675	20706.23
237.747	20679.29
237.819	20634.23
237.891	20596.3
237.963	20543.82
238.035	20495.05
238.107	20408.06
238.178	20384.59
238.25	20347.96
238.322	20330.61
238.394	20274.61
238.466	20238.47
238.538	20206.61
238.609	20174.28
238.681	20111.14
238.753	20057.02
238.825	20020.59
238.897	19994.23
238.968	19980.01
239.04	19933.51
239.112	19919.24
239.184	19870.43
239.255	19821.66
239.327	19784.74
239.399	19750.67
239.471	19728.84
239.542	19705.57
239.614	19690.82
239.686	19621.91
239.758	19601.57
239.829	19546.83
239.901	19516.23
239.973	19474.73
240.044	19441.15
240.116	19398.55
240.188	19364.57
240.259	19326.02
240.331	19279.76
240.403	19249.83
240.474	19189.4
240.546	19147.38
240.618	19089.89
240.689	19050.76
240.761	19013.85
240.833	19003.39
240.904	18956.98
240.976	18916.26
241.048	18871.78
241.119	18845.52
241.191	18818.2
241.262	18791.79
241.334	18744.95
241.405	18718.01
241.477	18675.7
241.549	18632.47
241.62	18595.41
241.692	18563.37
241.763	18542.69
241.835	18501.93
241.906	18461.69
241.978	18407.52
242.049	18376.2
242.121	18353.88
242.192	18318.42
242.264	18272.06
242.335	18205.02
242.407	18184.49
242.478	18137.17
242.55	18101.56
242.621	18058.04
242.693	18017.27
242.764	17968.99
242.836	17934.09
242.907	17894.87
242.979	17863.11
243.05	17834.72
243.122	17805.52
243.193	17762.77
243.264	17692.37
243.336	17659.5
243.407	17638.54
243.479	17627.16
243.55	17594.39
243.622	17558.06
243.693	17522.39
243.764	17502.78
243.836	17469.14
243.907	17415.36
243.978	17382.68
244.05	17357.33
244.121	17299.21
244.192	17276.94
244.264	17225.52
244.335	17188.8
244.407	17136.12
244.478	17111.35
244.549	17065.13
244.62	17014.82
244.692	16976.07
244.763	16952.07
244.834	16905.61
244.906	16856.21
244.977	16822.72
245.048	16808.11
245.119	16761.56
245.191	16727.29
245.262	16667.33
245.333	16654.8
245.405	16629.93
245.476	16607.76
245.547	16575.57
245.618	16549.25
245.689	16509.3
245.761	16483.61
245.832	16448.43
245.903	16425.68
245.974	16388.08
246.045	16363.31
246.117	16344.08
246.188	16297.04
246.259	16249.95
246.33	16218.18
246.401	16187.39
246.473	16130.08
246.544	16083.95
246.615	16061.11
246.686	16025.88
246.757	16011.56
246.828	15954.11
246.899	15931.89
246.97	15878.53
247.042	15833.51
247.113	15812.83
247.184	15803.44
247.255	15763
247.326	15737.84
247.397	15705.11
247.468	15664.81
247.539	15630.93
247.61	15586.25
247.681	15573.38
247.752	15558.92
247.823	15512.93
247.894	15479.91
247.965	15441.83
248.037	15399.42
248.108	15352.66
248.179	15314.68
248.25	15282.53
248.321	15262.91
248.392	15218.18
248.463	15203.04
248.534	15178.12
248.605	15157.44
248.675	15119.12
248.746	15095.21
248.817	15069.23
248.888	15039.83
248.959	14995.96
249.03	14969.16
249.101	14945.16
249.172	14909.44
249.243	14861.67
249.314	14850.58
249.385	14820.41
249.456	14806.28
249.527	14774.71
249.598	14749.88
249.669	14725.35
249.739	14707.51
249.81	14682.59
249.881	14637.61
249.952	14613.46
250.023	14580.01
250.094	14526.6
250.165	14482.11
250.235	14457.09
250.306	14424.41
250.377	14390.47
250.448	14370.7
250.519	14316.09
250.59	14306.11
250.66	14273.67
250.731	14270.68
250.802	14245.03
250.873	14222.86
250.944	14201.79
251.014	14179.76
251.085	14179.38
251.156	14155.42
251.227	14142.69
251.297	14134.11
251.368	14128.91
251.439	14116.85
251.51	14110.92
251.58	14080.8
251.651	14061.8
251.722	14037.65
251.792	13995.08
251.863	13965.39
251.934	13955.51
252.005	13971.85
252.075	13949.96
252.146	13940.32
252.217	13917.95
252.287	13900.26
252.358	13880.93
252.429	13873.99
252.499	13839.67
252.57	13817.49
252.641	13805.34
252.711	13767.55
252.782	13729.13
252.852	13719.25
252.923	13694.66
252.994	13659.23
253.064	13658.8
253.135	13621.92
253.205	13597.38
253.276	13593.04
253.347	13593.67
253.417	13553.85
253.488	13514.18
253.558	13475.18
253.629	13449.15
253.699	13429.86
253.77	13410.24
253.841	13375.44
253.911	13346.61
253.982	13327.28
254.052	13309.54
254.123	13290.02
254.193	13276.23
254.264	13283.61
254.334	13252.42
254.405	13214.19
254.475	13186.61
254.546	13158.75
254.616	13159.81
254.687	13142.31
254.757	13130.84
254.827	13101.82
254.898	13089.04
254.968	13064.36
255.039	13038.04
255.109	13025.85
255.18	12992.58
255.25	12955.8
255.321	12944.96
255.391	12910.97
255.461	12913.72
255.532	12866.96
255.602	12834.08
255.673	12780.43
255.743	12751.65
255.813	12699.83
255.884	12693.32
255.954	12676.89
256.024	12673.22
256.095	12644.01
256.165	12610.8
256.235	12589.06
256.306	12559.46
256.376	12551.7
256.446	12549.19
256.517	12541.67
256.587	12531.89
256.657	12518.39
256.728	12492.12
256.798	12473.51
256.868	12445.36
256.938	12416.63
257.009	12411.91
257.079	12402.55
257.149	12420.82
257.219	12375.37
257.29	12367.46
257.36	12317.48
257.43	12311.5
257.5	12266.19
257.571	12239.58
257.641	12225.79
257.711	12192.73
257.781	12175.04
257.852	12167.52
257.922	12123.99
257.992	12096.47
258.062	12068.07
258.132	12055.69
258.202	12037.27
258.273	12016.26
258.343	12026.04
258.413	12000.4
258.483	11972.83
258.553	11942.41
258.623	11915.47
258.693	11905.2
258.764	11905.68
258.834	11910.84
258.904	11884.67
258.974	11858.49
259.044	11835.79
259.114	11822.06
259.184	11807.6
259.254	11788.22
259.324	11748.94
259.394	11738.09
259.464	11739.01
259.535	11716.5
259.605	11685.99
259.675	11663.77
259.745	11651.82
259.815	11615.47
259.885	11590.56
259.955	11603.14
260.025	11576.24
260.095	11555.28
260.165	11548.92
260.235	11545.93
260.305	11517.64
260.375	11494.98
260.445	11509.68
260.515	11513.01
260.585	11512.09
260.655	11497.01
260.725	11501.39
260.795	11485.87
260.865	11493.39
260.934	11461.29
261.004	11452.19
261.074	11445.82
261.144	11447.8
261.214	11438.11
261.284	11420.67
261.354	11413.24
261.424	11386.59
261.494	11387.55
261.564	11367.46
261.634	11355.89
261.703	11324.56
261.773	11318.63
261.843	11312.13
261.913	11283.93
261.983	11247.02
262.053	11233.38
262.123	11211.55
262.192	11175.93
262.262	11171.84
262.332	11137.91
262.402	11131.5
262.472	11113.28
262.541	11068.9
262.611	11063.31
262.681	11036.04
262.751	11036.66
262.821	11015.7
262.89	10982.11
262.96	10981.53
263.03	10987.31
263.1	10971.99
263.169	10950.02
263.239	10939.51
263.309	10935.56
263.379	10924.19
263.448	10912.28
263.518	10896.77
263.588	10890.41
263.657	10899.13
263.727	10897.87
263.797	10874.51
263.867	10860.92
263.936	10834.7
264.006	10834.17
264.076	10812.3
264.145	10800.78
264.215	10771.14
264.285	10767.39
264.354	10739.39
264.424	10711.69
264.494	10676.17
264.563	10657.04
264.633	10664.36
264.702	10650.29
264.772	10618.3
264.842	10600.95
264.911	10593.68
264.981	10569.87
265.05	10548.19
265.12	10521.83
265.19	10508.1
265.259	10511.38
265.329	10503.47
265.398	10491.53
265.468	10508.15
265.537	10485.36
265.607	10474.28
265.676	10469.8
265.746	10459.15
265.815	10457.95
265.885	10441.66
265.955	10418.87
266.024	10401.82
266.094	10361.83
266.163	10360.1
266.232	10359.23
266.302	10347.76
266.371	10335.19
266.441	10321.51
266.51	10320.78
266.58	10303.01
266.649	10278.05
266.719	10274.29
266.788	10266.1
266.858	10272.94
266.927	10233.48
266.996	10227.51
267.066	10215.03
267.135	10192.53
267.205	10188.34
267.274	10176.44
267.343	10175.29
267.413	10163.78
267.482	10171.77
267.552	10181.74
267.621	10148.75
267.69	10124.8
267.76	10113.1
267.829	10100.81
267.898	10084.77
267.968	10058.76
268.037	10053.41
268.106	10043.87
268.176	10013.72
268.245	9990.07
268.314	9974.7
268.384	9971.61
268.453	9957.79
268.522	9954.03
268.592	9953.6
268.661	9931.1
268.73	9924.84
268.799	9907.12
268.869	9916.89
268.938	9877.06
269.007	9852.49
269.076	9846.86
269.146	9844.21
269.215	9838.62
269.284	9852.2
269.353	9836.69
269.422	9830.34
269.492	9817.24
269.561	9778.75
269.63	9782.8
269.699	9774.18
269.768	9761.66
269.838	9761.37
269.907	9759.73
269.976	9727.03
270.045	9696.06
270.114	9697.75
270.183	9679.4
270.253	9674.44
270.322	9649.25
270.391	9643.03
270.46	9648.19
270.529	9648.96
270.598	9640.53
270.667	9623.96
270.736	9597.9
270.806	9603.3
270.875	9595.59
270.944	9585.38
271.013	9610.33
271.082	9601.03
271.151	9594.39
271.22	9559.62
271.289	9543.2
271.358	9533.08
271.427	9532.79
271.496	9529.42
271.565	9505.68
271.634	9500.67
271.703	9495.18
271.772	9494.12
271.841	9480.11
271.91	9452.23
271.979	9440.72
272.048	9419.29
272.117	9415.15
272.186	9396.18
272.255	9385.48
272.324	9385.77
272.393	9375.95
272.462	9354.09
272.531	9338.53
272.6	9329.14
272.669	9342.04
272.738	9330.34
272.807	9322.93
272.876	9301.02
272.945	9325.96
273.013	9332.13
273.082	9335.11
273.151	9310.75
273.22	9307.96
273.289	9301.22
273.358	9315.13
273.427	9304.49
273.496	9305.21
273.564	9303.58
273.633	9307.86
273.702	9287.49
273.771	9272.86
273.84	9272.47
273.909	9270.98
273.977	9270.88
274.046	9259.23
274.115	9265.97
274.184	9248.01
274.253	9243.73
274.322	9257.16
274.39	9225.96
274.459	9213.29
274.528	9182.43
274.597	9188.5
274.665	9179.78
274.734	9186.28
274.803	9171.64
274.872	9163.94
274.94	9150.75
275.009	9215.2
275.078	9201.53
275.147	9199.02
275.215	9199.02
275.284	9202.11
275.353	9193.34
275.421	9167.44
275.49	9182.22
275.559	9167.2
275.627	9163.69
275.696	9153.96
275.765	9152.71
275.833	9139.47
275.902	9134.32
275.971	9149.29
276.039	9161.91
276.108	9167.01
276.177	9165.28
276.245	9157.05
276.314	9150.02
276.383	9151.17
276.451	9077.14
276.52	9079.55
276.588	9093.08
276.657	9092.93
276.725	9081.66
276.794	9081.76
276.863	9098.37
276.931	9074.2
277	9082.48
277.068	9090.86
277.137	9107.27
277.205	9102.99
277.274	9120.56
277.342	9132.65
277.411	9113.1
277.48	9093.27
277.548	9077.23
277.617	9079.4
277.685	9076.75
277.754	9083.3
277.822	9078.68
277.89	9096.25
277.959	9092.26
278.027	9069.97
278.096	9059.62
278.164	9092.89
278.233	9083.89
278.301	9070.41
278.37	9072.29
278.438	9058.32
278.507	9062.51
278.575	9037.09
278.643	9031.17
278.712	9016.39
278.78	8996.65
278.849	9006.52
278.917	9019.9
278.985	9020.72
279.054	9020.14
279.122	9026.93
279.191	9026.35
279.259	9021.54
279.327	8994.24
279.396	9009.98
279.464	9015.71
279.532	9026.54
279.601	9014.41
279.669	9007.52
279.737	9016.72
279.806	9020.72
279.874	9028.95
279.942	9023.22
280.011	9019.66
280.079	9028.27
280.147	9044.26
280.215	9051.24
280.284	9043.54
280.352	9024.09
280.42	9029.43
280.488	9014.55
280.557	9007.24
280.625	9013.69
280.693	9015.13
280.761	9022.4
280.83	8997.94
280.898	9006.47
280.966	8983.84
281.034	8949.32
281.102	8935.51
281.171	8935.08
281.239	8942.2
281.307	8930.36
281.375	8918.47
281.443	8938.21
281.512	8938.01
281.58	8942.54
281.648	8931.18
281.716	8930.99
281.784	8935.94
281.852	8929.98
281.92	8935.22
281.989	8950.44
282.057	8927.62
282.125	8955.78
282.193	8949.43
282.261	8950.44
282.329	8938.84
282.397	8945.82
282.465	8947.02
282.533	8971.95
282.601	8955.25
282.67	8934.74
282.738	8924.54
282.806	8940.76
282.874	8933.1
282.942	8929.35
283.01	8923.43
283.078	8930.12
283.146	8934.93
283.214	8942.92
283.282	8945.52
283.35	8956.6
283.418	8944.9
283.486	8951.92
283.554	8924.48
283.622	8928.04
283.69	8930.26
283.758	8930.64
283.826	8937.04
283.894	8948.69
283.962	8966.36
284.03	8988.56
284.098	8990.1
284.165	8992.69
284.233	8991.06
284.301	8978.78
284.369	8969.97
284.437	8961.5
284.505	8952.35
284.573	8961.4
284.641	8943.88
284.709	8956.4
284.777	8940.56
284.845	8949.08
284.912	8956.59
284.98	8965.74
285.048	8954.67
285.116	8960.68
285.184	8976.62
285.252	8971.76
285.319	8955.01
285.387	8940.51
285.455	8914.13
285.523	8919
285.591	8911.05
285.659	8908.79
285.726	8931.23
285.794	8916.98
285.862	8923
285.93	8919.48
285.997	8907.59
286.065	8901.29
286.133	8888.58
286.201	8882.42
286.269	8866.82
286.336	8853.34
286.404	8839.53
286.472	8853.73
286.539	8827.11
286.607	8801.21
286.675	8803.19
286.743	8815.56
286.81	8805.78
286.878	8825.23
286.946	8814.88
287.013	8815.31
287.081	8815.46
287.149	8794.52
287.216	8823.35
287.284	8808.28
287.352	8812.66
287.419	8817.57
287.487	8838.51
287.555	8835.19
287.622	8835.58
287.69	8840.49
287.758	8858.92
287.825	8853.63
287.893	8839.33
287.96	8854.2
288.028	8869.94
288.096	8877.07
288.163	8879.52
288.231	8870.04
288.298	8868.88
288.366	8889.68
288.433	8887.71
288.501	8887.85
288.569	8894.93
288.636	8886.41
288.704	8902.53
288.771	8911.68
288.839	8900.17
288.906	8894.69
288.974	8903.98
289.041	8902.05
289.109	8895.89
289.176	8898.97
289.244	8908.12
289.311	8919.53
289.379	8924.53
289.446	8925.16
289.514	8923.76
289.581	8922.94
289.649	8924.63
289.716	8925.97
289.783	8915.14
289.851	8940.17
289.918	8932.47
289.986	8937.24
290.053	8937.53
290.121	8934.78
290.188	8936.42
290.255	8974.26
290.323	8963.67
290.39	8958.52
290.458	8966.27
290.525	8977.58
290.592	8973.34
290.66	8972.72
290.727	8968.48
290.794	8982.58
290.862	8983.84
290.929	8986.48
290.996	8984.56
291.064	9003.19
291.131	9012.82
291.198	9026.83
291.266	9019.12
291.333	9016.81
291.4	9025.38
291.468	9041.13
291.535	9035.45
291.602	9035.01
291.669	9023.79
291.737	9030.77
291.804	9036.36
291.871	9056.58
291.938	9061.3
292.006	9087.64
292.073	9103.96
292.14	9115.41
292.207	9108.67
292.275	9108.96
292.342	9116.47
292.409	9149.26
292.476	9172.28
292.543	9162.65
292.611	9166.5
292.678	9181.43
292.745	9216.14
292.812	9223.8
292.879	9217.25
292.946	9226.01
293.014	9242.24
293.081	9252.11
293.148	9272.47
293.215	9286.63
293.282	9275.22
293.349	9285.33
293.416	9261.97
293.484	9273.34
293.551	9280.61
293.618	9302.32
293.685	9331.65
293.752	9326.35
293.819	9314.51
293.886	9297.84
293.953	9304.68
294.02	9309.98
294.087	9319.99
294.154	9307.86
294.221	9324.23
294.288	9332.85
294.356	9351.82
294.423	9356.01
294.49	9342.58
294.557	9352.35
294.624	9341.81
294.691	9370.84
294.758	9372.24
294.825	9383.75
294.892	9376.04
294.959	9383.75
295.026	9386.93
295.093	9373.83
295.16	9373.83
295.226	9377.54
295.293	9405.56
295.36	9415.53
295.427	9431.62
295.494	9446.5
295.561	9456.8
295.628	9477.23
295.695	9492.2
295.762	9491.19
295.829	9505.69
295.896	9526.2
295.963	9535.74
296.03	9548.11
296.096	9547.77
296.163	9563.62
296.23	9583.17
296.297	9600.99
296.364	9599.16
296.431	9608.6
296.498	9611.39
296.564	9639.27
296.631	9643.56
296.698	9630.12
296.765	9652.66
296.832	9636.86
296.899	9626.12
296.965	9644.52
297.032	9621.88
297.099	9646.83
297.166	9653.24
297.233	9648.04
297.299	9640.81
297.366	9642.79
297.433	9647.75
297.5	9656.08
297.566	9653.14
297.633	9645.73
297.7	9646.02
297.767	9643.7
297.833	9650.93
297.9	9651.75
297.967	9630.46
298.033	9643.71
298.1	9669.96
298.167	9659.51
298.234	9669.57
298.3	9680.94
298.367	9677.13
298.434	9683.54
298.5	9657.91
298.567	9654.4
298.634	9651.31
298.7	9670.43
298.767	9673.42
298.834	9687.68
298.9	9680.21
298.967	9673.32
299.033	9683.73
299.1	9706.17
299.167	9721.87
299.233	9713.49
299.3	9727.22
299.366	9747.73
299.433	9766.04
299.5	9743.45
299.566	9745.04
299.633	9758.57
299.699	9768.06
299.766	9764.59
299.832	9771.43
299.899	9788.1
299.965	9809.39
300.032	9810.69
300.099	9821.04
300.165	9822.01
300.232	9818.25
300.298	9819.16
300.365	9837.08
300.431	9847.39
300.498	9832.22
300.564	9837.8
300.631	9854.61
300.697	9868.53
300.763	9878.41
300.83	9875.08
300.896	9885.73
300.963	9899.41
301.029	9905.62
301.096	9906.68
301.162	9921.8
301.229	9917.85
301.295	9904.22
301.361	9902.2
301.428	9908.12
301.494	9887.22
301.561	9892.23
301.627	9894.35
301.693	9898.25
301.76	9899.07
301.826	9888.18
301.892	9905.91
301.959	9914.77
302.025	9906.29
302.092	9905.96
302.158	9904.7
302.224	9904.03
302.291	9895.55
302.357	9887.51
302.423	9886.64
302.49	9878.6
302.556	9889.92
302.622	9894.16
302.688	9902.3
302.755	9918.77
302.821	9924.89
302.887	9942.18
302.954	9942.33
303.02	9947.96
303.086	9952.39
303.152	9952.39
303.219	9949.17
303.285	9948.15
303.351	9954.46
303.417	9958.41
303.483	9947.09
303.55	9942.95
303.616	9941.07
303.682	9941.51
303.748	9944.83
303.815	9957.79
303.881	9966.32
303.947	9952.35
304.013	9946.04
304.079	9938.14
304.145	9913.04
304.212	9915.93
304.278	9905.19
304.344	9900.47
304.41	9892.62
304.476	9888.47
304.542	9878.89
304.608	9886.79
304.674	9868.24
304.741	9864.1
304.807	9865.98
304.873	9874.07
304.939	9889.39
305.005	9872.34
305.071	9875.71
305.137	9873.35
305.203	9841.46
305.269	9840.02
305.335	9846.42
305.401	9846.18
305.467	9848.11
305.533	9852.06
305.599	9856.01
305.666	9870.07
305.732	9872.58
305.798	9885.15
305.864	9911.93
305.93	9922.82
305.996	9918.92
306.062	9917.62
306.128	9914
306.194	9898.98
306.259	9898.59
306.325	9892.81
306.391	9903.45
306.457	9911.4
306.523	9914.48
306.589	9945.51
306.655	9943.53
306.721	9926.09
306.787	9919.4
306.853	9942.42
306.919	9935.39
306.985	9922.97
307.051	9916.99
307.117	9906.64
307.183	9899.56
307.248	9866.17
307.314	9866.27
307.38	9872.29
307.446	9884.19
307.512	9868.15
307.578	9877.3
307.644	9869.5
307.709	9867.67
307.775	9857.46
307.841	9851.82
307.907	9856.54
307.973	9831.97
308.039	9831.25
308.104	9840.11
308.17	9840.11
308.236	9815.35
308.302	9819.45
308.368	9808.8
308.433	9806.25
308.499	9802.98
308.565	9788.91
308.631	9790.65
308.696	9765.94
308.762	9744.89
308.828	9741.62
308.894	9731.21
308.959	9711.9
309.025	9701.26
309.091	9701.21
309.156	9698.51
309.222	9698.22
309.288	9681.51
309.354	9658.25
309.419	9654.11
309.485	9639.85
309.551	9640.33
309.616	9626.41
309.682	9615.48
309.748	9606.76
309.813	9600.12
309.879	9591.88
309.945	9579.94
310.01	9573.82
310.076	9577.15
310.141	9578.83
310.207	9563.61
310.273	9566.07
310.338	9566.36
310.404	9554.41
310.469	9535.77
310.535	9528.12
310.601	9505.68
310.666	9506.78
310.732	9524.65
310.797	9511.4
310.863	9503.41
310.928	9497.82
310.994	9501
311.059	9502.35
311.125	9513.28
311.191	9524.99
311.256	9511.65
311.322	9519.69
311.387	9497.11
311.453	9815.83
311.518	9793.87
311.584	9790.94
311.649	9790.79
311.715	9777.55
311.78	9775.53
311.846	9769.12
311.911	9772.35
311.976	9776.87
312.042	9768.11
312.107	9746.01
312.173	9734.88
312.238	9729.54
312.304	9727.13
312.369	9719.47
312.434	9709.94
312.5	9696.94
312.565	9660.96
312.631	9669.58
312.696	9666.21
312.761	9675.17
312.827	9351.34
312.892	9386.54
312.958	9379.22
313.023	9379.41
313.088	9379.8
313.154	9366.17
313.219	9350.57
313.284	9336.56
313.35	9328.23
313.415	9313.21
313.48	9309.16
313.546	9313.06
313.611	9320.96
313.676	9306.47
313.741	9299.05
313.807	9301.55
313.872	9305.5
313.937	9306.75
314.003	9321.2
314.068	9316.19
314.133	9315.47
314.198	9301.75
314.264	9276.95
314.329	9271.02
314.394	9262.89
314.459	9265.63
314.525	9289.56
314.59	9288.4
314.655	9283.64
314.72	9285.03
314.785	9288.74
314.851	9288.55
314.916	9267.41
314.981	9243.19
315.046	9237.61
315.111	9226.01
315.176	9214.79
315.242	9217.24
315.307	9214.4
315.372	9187.87
315.437	9178.19
315.502	9175.54
315.567	9190.09
315.632	9174.82
315.698	9177.62
315.763	9176.27
315.828	9171.74
315.893	9163.7
315.958	9161.63
316.023	9153.35
316.088	9143.43
316.153	9117.19
316.218	9104.49
316.283	9090.29
316.348	9075.7
316.413	9073.15
316.479	9053.56
316.544	9020.59
316.609	8988.19
316.674	8951.46
316.739	8911.13
316.804	8878.45
316.869	8845.62
316.934	8798.73
316.999	8770.67
317.064	8712.87
317.129	8663.01
317.194	8618.25
317.259	8571.22
317.324	8520.79
317.389	8471.47
317.454	8423.49
317.518	8393.56
317.583	8369.88
317.648	8345.87
317.713	8317.63
317.778	8256.71
317.843	8230.1
317.908	8196.09
317.973	8159.24
318.038	8132.54
318.103	8101.76
318.168	8065.2
318.233	8033.45
318.297	7987.85
318.362	7944.56
318.427	7908.36
318.492	7887.72
318.557	7836.9
318.622	7808.81
318.687	7782.41
318.751	7742.79
318.816	7714.18
318.881	7681.29
318.946	7625.9
319.011	7576.71
319.075	7530.27
319.14	7492.82
319.205	7451.96
319.27	7416.92
319.335	7366.68
319.399	7326.26
319.464	7294.3
319.529	7244.7
319.594	7200.34
319.658	7171.12
319.723	7131.24
319.788	7099.58
319.853	7045.08
319.917	7018.18
319.982	6957.92
320.047	6919.2
320.112	6893.02
320.176	6840.27
320.241	6798.24
320.306	6770.14
320.37	6728.26
320.435	6697.62
320.5	6672.36
320.564	6627.55
320.629	6584.24
320.694	6555.76
320.758	6513.13
320.823	6473.52
320.888	6444.48
320.952	6398.58
321.017	6354.75
321.082	6316.02
321.146	6285.16
321.211	6245.66
321.275	6207.12
321.34	6165.86
321.405	6121.67
321.469	6075.75
321.534	6032.48
321.598	5984.6
321.663	5949.47
321.727	5919.06
321.792	5873.92
321.857	5829.25
321.921	5792.04
321.986	5745.67
322.05	5688.03
322.115	5652.45
322.179	5601.59
322.244	5545.79
322.308	5512.62
322.373	5465.79
322.437	5422.27
322.502	5393.31
322.566	5348.79
322.631	5313.8
322.695	5273.27
322.76	5231.92
322.824	5195.84
322.889	5155.61
322.953	5112.17
323.018	5044.77
323.082	4978.12
323.146	4920.91
323.211	4860.19
323.275	4816.33
323.34	4771.39
323.404	4730.61
323.468	4678.81
323.533	4637.47
323.597	4592.93
323.662	4537.13
323.726	4501.15
323.79	4456.89
323.855	4391.37
323.919	4342.58
323.983	4290.71
324.048	4225.47
324.112	4389.84
324.177	4254.35
324.241	4034.58
324.305	3818.2
324.37	3607.7
324.434	3408.1
324.498	3364.63
324.562	3318.01
324.627	3253.27
324.691	3196.44
324.755	3130.82
324.82	3057.52
324.884	2978.91
324.948	2904.96
325.012	2807.74
325.077	2681.6
