Data from 20250703_urea_0.1M_MAYP1162681_13-41-05-023.txt Node
Date: Thu Jul 03 13:41:05 BST 2025
User: adleo
Spectrometer: MAYP116268
Trigger mode: 0
Integration Time (sec): 1.000000E0
Scans to average: 1
Electric dark correction enabled: true
Nonlinearity correction enabled: true
Boxcar width: 10
XAxis mode: Wavelengths
Number of Pixels in Spectrum: 2068
>>>>>Begin Spectral Data<<<<<
179.565	1228.29
179.642	1283.9
179.718	1328.81
179.795	1368.23
179.871	1399.87
179.948	1419.25
180.024	1440.52
180.101	1465.64
180.177	1481.92
180.254	1502.56
180.33	1525.89
180.407	1582.15
180.483	1681.35
180.56	1774.34
180.636	1860.27
180.712	1847
180.789	1858.13
180.865	1872.24
180.942	1878.71
181.018	1887.98
181.095	1901.62
181.171	1907.18
181.248	1909.61
181.324	1923.92
181.4	1931.86
181.477	1944.94
181.553	1959.58
181.63	1979.5
181.706	1992.49
181.782	2000.85
181.859	2001.04
181.935	2003.66
182.011	1998.48
182.088	2012.27
182.164	2030.73
182.24	2044.09
182.317	2054.78
182.393	2051.79
182.469	2067.01
182.546	2081.04
182.622	2083.32
182.698	2082.37
182.775	2092.21
182.851	2109.01
182.927	2104.39
183.003	2098.97
183.08	2093.88
183.156	2101.54
183.232	2095.93
183.308	2085.61
183.385	2091.74
183.461	2114.05
183.537	2116.95
183.613	2128.75
183.69	2120.04
183.766	2107.86
183.842	2114.52
183.918	2122.89
183.995	2138.54
184.071	2141.87
184.147	2135.55
184.223	2124.18
184.299	2138.75
184.375	2128.66
184.452	2131.52
184.528	2182.91
184.604	2196.51
184.68	2207.12
184.756	2215.35
184.832	2222.92
184.908	2229.53
184.985	2230.86
185.061	2213.02
185.137	2222.3
185.213	2211.22
185.289	2213.74
185.365	2208.46
185.441	2210.07
185.517	2221.78
185.593	2213.84
185.669	2208.65
185.745	2221.31
185.822	2238.62
185.898	2225.05
185.974	2234.14
186.05	2225.43
186.126	2187.93
186.202	2180.75
186.278	2176.66
186.354	2166.19
186.43	2174.75
186.506	2170.43
186.582	2167.91
186.658	2175.66
186.734	2153.07
186.81	2156.49
186.886	2158.01
186.962	2169.38
187.038	2164.67
187.114	2155.39
187.19	2167.05
187.266	2157.53
187.341	2157.34
187.417	2153.97
187.493	2157.15
187.569	2161.34
187.645	2159.39
187.721	2149.21
187.797	2155.96
187.873	2163.1
187.949	2159.01
188.025	2150.73
188.101	2157.81
188.176	2161.76
188.252	2155.15
188.328	2166.23
188.404	2168.04
188.48	2163.9
188.556	2159.04
188.632	2156.71
188.707	2158.66
188.783	2153.62
188.859	2150.39
188.935	2141.01
189.011	2144.72
189.086	2139.06
189.162	2129.79
189.238	2126.17
189.314	2123.89
189.39	2118.42
189.465	2107.38
189.541	2123.41
189.617	2109.1
189.693	2103.2
189.768	2110.29
189.844	2135.84
189.92	2129.85
189.996	2137.42
190.071	2147.31
190.147	2143.36
190.223	2153.78
190.298	2145.5
190.374	2132.19
190.45	2145.22
190.526	2154.45
190.601	2150.93
190.677	2151.74
190.753	2178.63
190.828	2183.96
190.904	2194.85
190.98	2211.08
191.055	2222.93
191.131	2213.6
191.207	2234.72
191.282	2244.14
191.358	2233.96
191.433	2217.96
191.509	2227.43
191.585	2223.48
191.66	2225.62
191.736	2232.71
191.811	2224.48
191.887	2242.66
191.963	2266.88
192.038	2269.78
192.114	2267.83
192.189	2271.54
192.265	2266.59
192.34	2247.98
192.416	2243.46
192.491	2239.75
192.567	2238.75
192.642	2241.27
192.718	2242.32
192.793	2231.18
192.869	2224.85
192.944	2226
193.02	2232.47
193.095	2236.7
193.171	2245.03
193.246	2243.7
193.322	2244.08
193.397	2243.93
193.473	2228.08
193.548	2210.38
193.624	2221.04
193.699	2219.76
193.775	2239.8
193.85	2241.75
193.925	2248.94
194.001	2249.41
194.076	2245.56
194.152	2235.71
194.227	2227.76
194.302	2218.39
194.378	2223.05
194.453	2220.96
194.529	2234.04
194.604	2223.05
194.679	2217.77
194.755	2196.7
194.83	2211.5
194.905	2211.88
194.981	2219.26
195.056	2213.5
195.131	2221.45
195.207	2217.83
195.282	2211.31
195.357	2190.13
195.433	2205.07
195.508	2192.79
195.583	2200.93
195.659	2214.73
195.734	2221.25
195.809	2219.73
195.884	2226.29
195.96	2223.67
196.035	2239.9
196.11	2235.95
196.185	2247.22
196.261	2252.17
196.336	2284.91
196.411	2270.15
196.486	2273.05
196.561	2269.91
196.637	2276.62
196.712	2291.81
196.787	2293.62
196.862	2304.8
196.937	2312.98
197.013	2319.79
197.088	2332.35
197.163	2353.92
197.238	2371.55
197.313	2372.74
197.388	2386.78
197.464	2418.54
197.539	2432.25
197.614	2426.63
197.689	2439.01
197.764	2454.06
197.839	2472.29
197.914	2465.67
197.989	2487.38
198.065	2502
198.14	2551.69
198.215	2581.74
198.29	2590.41
198.365	2604.42
198.44	2617.41
198.515	2645.47
198.59	2662.19
198.665	2686.44
198.74	2693.49
198.815	2693.49
198.89	2714.12
198.965	2749.33
199.04	2746.09
199.115	2760.05
199.19	2802.45
199.265	2805.26
199.34	2816.65
199.415	2853.56
199.49	2875.14
199.565	2886.29
199.64	2910.98
199.715	2907.25
199.79	2912.88
199.865	2921.6
199.94	2917.93
200.015	2950.11
200.09	2955.4
200.165	2963.51
200.24	2974.57
200.315	3016.7
200.39	3032.25
200.464	3042.68
200.539	3040.73
200.614	3057.6
200.689	3079.58
200.764	3086.17
200.839	3104.37
200.914	3110.43
200.989	3100.5
201.063	3114.9
201.138	3094.56
201.213	3096.56
201.288	3078.02
201.363	3083.16
201.438	3085.12
201.512	3102.9
201.587	3084.87
201.662	3088.88
201.737	3098.89
201.812	3103.52
201.886	3072.69
201.961	3086.09
202.036	3073.94
202.111	3071.46
202.186	3043.2
202.26	3030.61
202.335	3011.67
202.41	3008.72
202.485	2992.99
202.559	2974.25
202.634	2951.51
202.709	2967.33
202.784	2947.64
202.858	2954.89
202.933	2938.01
203.008	2939.2
203.082	2924.67
203.157	2932.44
203.232	2902.89
203.306	2892.64
203.381	2869.51
203.456	2855.31
203.53	2839.04
203.605	2831.41
203.68	2824.74
203.754	2834.79
203.829	2834.41
203.904	2833.45
203.978	2843.56
204.053	2870.69
204.127	2880.89
204.202	2905.97
204.277	2916.46
204.351	2940.25
204.426	2963.86
204.5	2998.48
204.575	2997.53
204.65	3049.06
204.724	3080.37
204.799	3126.57
204.873	3169.38
204.948	3222.34
205.022	3263.37
205.097	3314.18
205.171	3389.3
205.246	3454.24
205.32	3513.89
205.395	3585.58
205.469	3646.35
205.544	3722.52
205.618	3783.16
205.693	3877.01
205.767	3948.22
205.842	4058.58
205.916	4140.41
205.991	4225.07
206.065	4324.81
206.14	4442.05
206.214	4539.81
206.289	4648.49
206.363	4775.3
206.438	4889.92
206.512	5014.76
206.586	5158.75
206.661	5291.87
206.735	5395.79
206.81	5530.06
206.884	5679.8
206.958	5803.04
207.033	5964.18
207.107	6118.48
207.181	6296.56
207.256	6440.28
207.33	6611.09
207.405	6777.14
207.479	6958.44
207.553	7117.05
207.628	7263.82
207.702	7439.75
207.776	7601.85
207.851	7769.84
207.925	7955.49
207.999	8129.56
208.073	8295.76
208.148	8471.24
208.222	8636.54
208.296	8855.82
208.371	9059.03
208.445	9255.72
208.519	9467.98
208.593	9662.75
208.668	9843.21
208.742	10037.73
208.816	10230.15
208.89	10429.63
208.965	10621.21
209.039	10813.83
209.113	11026.79
209.187	11239.17
209.261	11421.46
209.336	11636.15
209.41	11844.1
209.484	12040.17
209.558	12250.74
209.632	12456.79
209.707	12661.54
209.781	12868.42
209.855	13064.75
209.929	13266.58
210.003	13459.35
210.077	13647.49
210.151	13886.19
210.226	14104.26
210.3	14310.62
210.374	14520.31
210.448	14707.29
210.522	14891.81
210.596	15086.84
210.67	15280.9
210.744	15495.64
210.818	15717.65
210.892	15911.99
210.966	16083.68
211.041	16273.92
211.115	16437.41
211.189	16634.87
211.263	16819.85
211.337	16999.04
211.411	17186.28
211.485	17341.51
211.559	17522.29
211.633	17691.55
211.707	17812.85
211.781	17980.31
211.855	18103.35
211.929	18251.25
212.003	18387.68
212.077	18564.64
212.151	18737.31
212.225	18898.89
212.299	19048.04
212.373	19173.09
212.447	19304.32
212.52	19478.34
212.594	19621.61
212.668	19784.98
212.742	19916.45
212.816	20050.28
212.89	20182.61
212.964	20314.66
213.038	20458.47
213.112	20604.84
213.186	20741.38
213.26	20855.16
213.333	20942.44
213.407	21071.27
213.481	21209.93
213.555	21345.41
213.629	21450.63
213.703	21545.39
213.777	21659.58
213.85	21759.22
213.924	21923.36
213.998	22055.64
214.072	22165.21
214.146	22259.7
214.219	22363.83
214.293	22457.83
214.367	22567.85
214.441	22684.33
214.515	22777.43
214.588	22843.63
214.662	22902.01
214.736	22985.71
214.81	23076.83
214.883	23184.73
214.957	23266.41
215.031	23326.44
215.105	23402.43
215.178	23476.07
215.252	23558.43
215.326	23617.8
215.4	23677.98
215.473	23698.33
215.547	23749.22
215.621	23808.79
215.694	23888.37
215.768	23931.34
215.842	23980.49
215.915	24033.93
215.989	24070.69
216.063	24118.2
216.136	24190.16
216.21	24246.02
216.284	24316.25
216.357	24392.08
216.431	24447.56
216.504	24520.94
216.578	24606.91
216.652	24668.12
216.725	24717.96
216.799	24768.38
216.873	24825.31
216.946	24877.8
217.02	24923.87
217.093	24962.57
217.167	24992.39
217.24	25020.62
217.314	25072.48
217.387	25124.73
217.461	25163.53
217.535	25235.68
217.608	25265.26
217.682	25299.85
217.755	25363.6
217.829	25387.49
217.902	25427.06
217.976	25461.67
218.049	25481.5
218.123	25503.56
218.196	25549.65
218.27	25586.82
218.343	25614.71
218.417	25644.69
218.49	25678.04
218.563	25730.5
218.637	25764.33
218.71	25812.02
218.784	25862.08
218.857	25903.93
218.931	25940.08
219.004	25969.63
219.077	25994.1
219.151	26037.26
219.224	26071.87
219.298	26088.52
219.371	26136.75
219.444	26142.11
219.518	26162.38
219.591	26196.8
219.665	26243.4
219.738	26260.01
219.811	26268.45
219.885	26301.72
219.958	26337.45
220.031	26355.26
220.105	26377.23
220.178	26407.69
220.251	26415.13
220.325	26427.49
220.398	26451.68
220.471	26468.53
220.544	26487.17
220.618	26494.08
220.691	26508.17
220.764	26525.85
220.838	26552.98
220.911	26558.34
220.984	26596.29
221.057	26618.36
221.131	26634.87
221.204	26612.52
221.277	26647.33
221.35	26694.32
221.424	26693.35
221.497	26694.76
221.57	26707.98
221.643	26714.46
221.716	26733.82
221.79	26747.1
221.863	26750.09
221.936	26747.68
222.009	26750.82
222.082	26765.11
222.155	26760.33
222.229	26782.98
222.302	26782.69
222.375	26767.38
222.448	26771.49
222.521	26769.46
222.594	26753.86
222.667	26733
222.74	26744.64
222.814	26723.78
222.887	26710.06
222.96	26718.75
223.033	26717.74
223.106	26718.71
223.179	26718.22
223.252	26701.13
223.325	26689.1
223.398	26679.3
223.471	26663.56
223.544	26662.3
223.617	26643.18
223.69	26633.18
223.763	26607.3
223.837	26604.74
223.91	26609.42
223.983	26574.37
224.056	26539.61
224.129	26534.78
224.202	26523.92
224.275	26507.88
224.348	26484.42
224.42	26446.47
224.493	26412.72
224.566	26394.46
224.639	26390.94
224.712	26367.52
224.785	26344.73
224.858	26321.8
224.931	26299.78
225.004	26264.49
225.077	26244.65
225.15	26206.46
225.223	26184.88
225.296	26179.09
225.369	26133.32
225.442	26108.41
225.514	26094.6
225.587	26083.26
225.66	26064.05
225.733	26047.68
225.806	26021.86
225.879	25998.78
225.952	25968.18
226.025	25948.82
226.097	25932.6
226.17	25894.85
226.243	25842.05
226.316	25812.55
226.389	25795.95
226.461	25776.3
226.534	25763.46
226.607	25723.21
226.68	25711.29
226.753	25682.19
226.825	25634.69
226.898	25630.68
226.971	25584.93
227.044	25562.73
227.117	25540.77
227.189	25513.88
227.262	25499.45
227.335	25475.75
227.407	25437.92
227.48	25414.18
227.553	25392.27
227.626	25356.6
227.698	25317.85
227.771	25303.9
227.844	25272.59
227.916	25236.34
227.989	25187.65
228.062	25156.34
228.134	25152.77
228.207	25114.21
228.28	25083
228.352	25050.47
228.425	25011.48
228.498	24997.54
228.57	24959.33
228.643	24933.8
228.716	24903.83
228.788	24859.11
228.861	24819.88
228.934	24810.09
229.006	24783.84
229.079	24756.14
229.151	24716.82
229.224	24679.77
229.296	24650.54
229.369	24651.5
229.442	24627.86
229.514	24596.46
229.587	24579.09
229.659	24526.36
229.732	24500.84
229.804	24479.09
229.877	24470.21
229.949	24455.55
230.022	24437.26
230.094	24396.17
230.167	24367.56
230.239	24327.13
230.312	24294.48
230.384	24284.25
230.457	24245.28
230.529	24210.74
230.602	24181.85
230.674	24164.15
230.747	24149.63
230.819	24134.92
230.892	24064.59
230.964	24035.12
231.037	24009.51
231.109	23972.8
231.181	23946.71
231.254	23911.46
231.326	23878.52
231.399	23841.66
231.471	23792.47
231.544	23734.69
231.616	23724.71
231.688	23697.89
231.761	23649.81
231.833	23619.14
231.905	23566.58
231.978	23546.08
232.05	23512.18
232.122	23467.33
232.195	23422.91
232.267	23394.66
232.339	23346.96
232.412	23325.02
232.484	23279.89
232.556	23231.33
232.629	23212
232.701	23189.19
232.773	23159.24
232.846	23115.17
232.918	23067.63
232.99	23043.95
233.062	23021.44
233.135	22981.56
233.207	22923.03
233.279	22907.12
233.351	22876.98
233.424	22827.61
233.496	22769.08
233.568	22757.56
233.64	22712.48
233.713	22674.39
233.785	22634.52
233.857	22603.18
233.929	22553.52
234.001	22541.09
234.074	22523.78
234.146	22475.76
234.218	22436.56
234.29	22396.36
234.362	22362.23
234.434	22320.48
234.507	22268.17
234.579	22219.82
234.651	22177.02
234.723	22148.81
234.795	22100.08
234.867	22056.7
234.939	22042.57
235.012	22010.56
235.084	21960.91
235.156	21935.17
235.228	21888.17
235.3	21843.54
235.372	21794.37
235.444	21768.29
235.516	21704.47
235.588	21666.2
235.66	21623.73
235.732	21569.17
235.804	21588.74
235.876	21556.25
235.948	21530.47
236.02	21490.32
236.092	21447.47
236.164	21403.18
236.236	21355.07
236.308	21314.68
236.38	21273.96
236.452	21229.18
236.524	21193.95
236.596	21171.92
236.668	21130.95
236.74	21087.96
236.812	21052.49
236.884	21025.5
236.956	20984.97
237.028	20936.92
237.1	20894.99
237.172	20869.73
237.244	20850.17
237.316	20772.85
237.388	20717.09
237.46	20665.96
237.532	20637.14
237.604	20585.96
237.675	20560.56
237.747	20535.36
237.819	20499.69
237.891	20456.22
237.963	20403.12
238.035	20356.18
238.107	20273.53
238.178	20253.33
238.25	20209.09
238.322	20185.38
238.394	20129.29
238.466	20091.22
238.538	20061.19
238.609	20027.27
238.681	19965.82
238.753	19915.03
238.825	19871.75
238.897	19839.51
238.968	19823.27
239.04	19775.47
239.112	19768.29
239.184	19712.53
239.255	19665.88
239.327	19628.24
239.399	19600.1
239.471	19565.55
239.542	19535.82
239.614	19517.07
239.686	19447.34
239.758	19427.15
239.829	19379.34
239.901	19347.68
239.973	19301.03
240.044	19266.29
240.116	19226.29
240.188	19190.63
240.259	19147.6
240.331	19099.74
240.403	19073.82
240.474	19023.46
240.546	18975.8
240.618	18913.97
240.689	18885.2
240.761	18848.72
240.833	18822.51
240.904	18777.55
240.976	18742.85
241.048	18702.9
241.119	18676.64
241.191	18650.04
241.262	18613.99
241.334	18568.69
241.405	18533.75
241.477	18494.72
241.549	18453.33
241.62	18414.58
241.692	18377.67
241.763	18356.61
241.835	18319.6
241.906	18267.41
241.978	18198.45
242.049	18173.58
242.121	18155.6
242.192	18126.21
242.264	18068.81
242.335	18005.39
242.407	17982.79
242.478	17940.91
242.55	17897.88
242.621	17840.82
242.693	17794.75
242.764	17766.75
242.836	17721.3
242.907	17686.94
242.979	17650.9
243.05	17622.85
243.122	17585.02
243.193	17546.03
243.264	17479.91
243.336	17446.18
243.407	17421.93
243.479	17418.95
243.55	17385.6
243.622	17342.18
243.693	17295.77
243.764	17280.59
243.836	17238.9
243.907	17189.35
243.978	17150.36
244.05	17126.89
244.121	17082.41
244.192	17062.89
244.264	17009.78
244.335	16978.31
244.407	16925.92
244.478	16898.74
244.549	16845.73
244.62	16794.25
244.692	16758.54
244.763	16739.94
244.834	16698.92
244.906	16649.09
244.977	16622.15
245.048	16604.56
245.119	16559.4
245.191	16515.3
245.262	16455.73
245.333	16450.52
245.405	16415.48
245.476	16383.33
245.547	16355.24
245.618	16333.21
245.689	16293.16
245.761	16262.5
245.832	16232.43
245.903	16210.11
245.974	16180.04
246.045	16149.43
246.117	16133.57
246.188	16086.92
246.259	16039.01
246.33	15996.25
246.401	15971.29
246.473	15904.15
246.544	15861.93
246.615	15836.62
246.686	15809.68
246.757	15791.89
246.828	15734.58
246.899	15719.74
246.97	15673.56
247.042	15623.33
247.113	15595.76
247.184	15579.18
247.255	15533.78
247.326	15502.54
247.397	15465.43
247.468	15433.71
247.539	15410.87
247.61	15369.99
247.681	15344.73
247.752	15327.48
247.823	15283.27
247.894	15255.08
247.965	15218.68
248.037	15174.96
248.108	15136.26
248.179	15100.01
248.25	15070.89
248.321	15058.75
248.392	15006.59
248.463	15002.59
248.534	14970.54
248.605	14944.02
248.675	14906.04
248.746	14886.42
248.817	14860.78
248.888	14840.58
248.959	14791.51
249.03	14770.73
249.101	14740.27
249.172	14713.9
249.243	14663.96
249.314	14659.67
249.385	14626.75
249.456	14613.44
249.527	14588.18
249.598	14563.74
249.669	14528.7
249.739	14505.7
249.81	14481.89
249.881	14453.06
249.952	14422.84
250.023	14397.87
250.094	14359.45
250.165	14326.96
250.235	14298.23
250.306	14272.63
250.377	14225.24
250.448	14194.3
250.519	14135.1
250.59	14128.35
250.66	14095.38
250.731	14089.83
250.802	14057.92
250.873	14035.07
250.944	14013.28
251.014	13977.71
251.085	13973.85
251.156	13965.12
251.227	13949.02
251.297	13932.59
251.368	13922.61
251.439	13901.83
251.51	13889.78
251.58	13856.66
251.651	13829.33
251.722	13813.27
251.792	13767.72
251.863	13749.98
251.934	13745.93
252.005	13751.09
252.075	13721.88
252.146	13713.54
252.217	13700.95
252.287	13688.56
252.358	13660.07
252.429	13646.82
252.499	13615.48
252.57	13596.39
252.641	13581.74
252.711	13546.02
252.782	13501.38
252.852	13488.7
252.923	13456.93
252.994	13433.6
253.064	13418.22
253.135	13380.28
253.205	13354.54
253.276	13350.44
253.347	13343.07
253.417	13316.46
253.488	13292.89
253.558	13259.29
253.629	13231.71
253.699	13209.63
253.77	13195.07
253.841	13173.96
253.911	13155.59
253.982	13140.17
254.052	13120.5
254.123	13099.19
254.193	13088.73
254.264	13106.86
254.334	13072.68
254.405	13046.98
254.475	13014.45
254.546	12990.2
254.616	12990.68
254.687	12974
254.757	12948.89
254.827	12921.89
254.898	12901.55
254.968	12876.24
255.039	12852.71
255.109	12836.66
255.18	12802.29
255.25	12750.42
255.321	12732.64
255.391	12686.07
255.461	12687.18
255.532	12644.52
255.602	12615.16
255.673	12569.32
255.743	12537.11
255.813	12492.91
255.884	12479.08
255.954	12460.18
256.024	12459.17
256.095	12436.9
256.165	12398.82
256.235	12390.19
256.306	12364.01
256.376	12358.66
256.446	12347.77
256.517	12329.55
256.587	12318.56
256.657	12306.22
256.728	12296.72
256.798	12276.86
256.868	12261.68
256.938	12221.53
257.009	12211.79
257.079	12197.13
257.149	12202.92
257.219	12162.38
257.29	12151.2
257.36	12110.42
257.43	12102.51
257.5	12063.86
257.571	12031.95
257.641	12022.07
257.711	11991.36
257.781	11976.42
257.852	11953.04
257.922	11915.35
257.992	11898.67
258.062	11877.03
258.132	11869.8
258.202	11850.18
258.273	11837.12
258.343	11837.84
258.413	11812.68
258.483	11789.01
258.553	11755.18
258.623	11732.52
258.693	11717.34
258.764	11714.88
258.834	11716.76
258.904	11703.75
258.974	11682.83
259.044	11669.63
259.114	11659.74
259.184	11645.77
259.254	11624.32
259.324	11589.62
259.394	11573.47
259.464	11566.63
259.535	11547.64
259.605	11516.5
259.675	11485.37
259.745	11470.28
259.815	11438.04
259.885	11423.77
259.955	11433.41
260.025	11414.52
260.095	11387.53
260.165	11377.6
260.235	11368.54
260.305	11340.73
260.375	11303
260.445	11307.67
260.515	11303.87
260.585	11295.67
260.655	11278.61
260.725	11274.18
260.795	11268.49
260.865	11273.65
260.934	11250.9
261.004	11239.04
261.074	11221.69
261.144	11225.31
261.214	11221.69
261.284	11206.46
261.354	11200.06
261.424	11167.67
261.494	11170.12
261.564	11160.82
261.634	11155.43
261.703	11123.23
261.773	11121.84
261.843	11114.42
261.913	11087.96
261.983	11052.25
262.053	11033.84
262.123	11010.28
262.192	10980.01
262.262	10971.63
262.332	10940.5
262.402	10929.75
262.472	10912.64
262.541	10874.96
262.611	10867.35
262.681	10837.62
262.751	10827.59
262.821	10808.42
262.89	10780.51
262.96	10767.7
263.03	10775.12
263.1	10757.29
263.169	10747.55
263.239	10729.48
263.309	10733.68
263.379	10729.39
263.448	10717.34
263.518	10706.6
263.588	10695.47
263.657	10698.65
263.727	10692.77
263.797	10673.11
263.867	10655.62
263.936	10630.32
264.006	10632.78
264.076	10613.17
264.145	10595.34
264.215	10577.56
264.285	10572.36
264.354	10541.28
264.424	10521.38
264.494	10485.15
264.563	10466.4
264.633	10461.2
264.702	10451.03
264.772	10415.28
264.842	10394.37
264.911	10391.67
264.981	10366.19
265.05	10346.96
265.12	10329.81
265.19	10317.81
265.259	10316.03
265.329	10309.53
265.398	10290.02
265.468	10304.66
265.537	10290.31
265.607	10282.07
265.676	10273.83
265.746	10260.1
265.815	10259.81
265.885	10241.65
265.955	10217.08
266.024	10194.01
266.094	10164.62
266.163	10164.67
266.232	10165.92
266.302	10146.65
266.371	10134.99
266.441	10126.08
266.51	10122.13
266.58	10103.39
266.649	10078.39
266.719	10071.35
266.788	10065.77
266.858	10072.41
266.927	10031.8
266.996	10017.3
267.066	10001.79
267.135	9983.29
267.205	9983.68
267.274	9973.95
267.343	9974.24
267.413	9966.48
267.482	9971.64
267.552	9974.67
267.621	9946.54
267.69	9917.93
267.76	9910.75
267.829	9899.38
267.898	9884.02
267.968	9862.3
268.037	9858.49
268.106	9855.55
268.176	9837.73
268.245	9822.8
268.314	9801.94
268.384	9800.98
268.453	9795.15
268.522	9793.27
268.592	9787.68
268.661	9763.51
268.73	9758.11
268.799	9736.49
268.869	9744.43
268.938	9709.9
269.007	9687.17
269.076	9672.43
269.146	9670.31
269.215	9665.88
269.284	9672.24
269.353	9658.46
269.422	9652.88
269.492	9638.33
269.561	9596.29
269.63	9589.74
269.699	9572.07
269.768	9566.91
269.838	9563.54
269.907	9560.84
269.976	9539.46
270.045	9506.09
270.114	9503.2
270.183	9489.77
270.253	9488.51
270.322	9454.85
270.391	9447.39
270.46	9454.95
270.529	9459.19
270.598	9461.36
270.667	9445.08
270.736	9423.36
270.806	9417
270.875	9415.36
270.944	9404
271.013	9428.32
271.082	9416.23
271.151	9406.21
271.22	9380.12
271.289	9360.33
271.358	9343.38
271.427	9330.28
271.496	9331.87
271.565	9318.77
271.634	9312.65
271.703	9312.8
271.772	9320.26
271.841	9310.97
271.91	9291.37
271.979	9283.95
272.048	9258.34
272.117	9258.34
272.186	9237.2
272.255	9239.75
272.324	9237.01
272.393	9229.88
272.462	9212.79
272.531	9206.24
272.6	9200.84
272.669	9210.91
272.738	9202.96
272.807	9195.79
272.876	9178.07
272.945	9202.63
273.013	9208.12
273.082	9207.45
273.151	9181.73
273.22	9177.3
273.289	9169.07
273.358	9171
273.427	9154.53
273.496	9149
273.564	9149
273.633	9152.56
273.702	9124.15
273.771	9110.62
273.84	9102.2
273.909	9100.37
273.977	9097.48
274.046	9088.38
274.115	9094.79
274.184	9081.12
274.253	9071.01
274.322	9084.53
274.39	9051.17
274.459	9026.32
274.528	8996.28
274.597	8989.83
274.665	8986.37
274.734	8992.34
274.803	8983.29
274.872	8979
274.94	8964.75
275.009	9009.98
275.078	8996.64
275.147	9002.42
275.215	8991.06
275.284	8999.39
275.353	8991.49
275.421	8968.77
275.49	8986.35
275.559	8964.3
275.627	8955.54
275.696	8953.85
275.765	8946.97
275.833	8940.42
275.902	8943.31
275.971	8953.9
276.039	8972.38
276.108	8970.89
276.177	8969.74
276.245	8960.54
276.314	8955.58
276.383	8967.47
276.451	8907.76
276.52	8910.74
276.588	8923.59
276.657	8936.16
276.725	8922.34
276.794	8915.8
276.863	8933.32
276.931	8899.67
277	8910.74
277.068	8920.07
277.137	8927.3
277.205	8926.43
277.274	8939.86
277.342	8946.69
277.411	8924.75
277.48	8901.16
277.548	8892.35
277.617	8888.02
277.685	8876.28
277.754	8877.67
277.822	8869.25
277.89	8880.42
277.959	8870.65
278.027	8848.89
278.096	8836.66
278.164	8865.26
278.233	8858.62
278.301	8839.79
278.37	8849.47
278.438	8828
278.507	8830.98
278.575	8807.74
278.643	8804.41
278.712	8792.53
278.78	8779.34
278.849	8795.12
278.917	8809.56
278.985	8806.09
279.054	8808.6
279.122	8825.4
279.191	8824.24
279.259	8824.63
279.327	8804.89
279.396	8826.17
279.464	8820.05
279.532	8826.41
279.601	8821.01
279.669	8814.9
279.737	8830.06
279.806	8834.11
279.874	8842
279.942	8842.58
280.011	8840.03
280.079	8848.64
280.147	8861.78
280.215	8867.75
280.284	8863.61
280.352	8850.86
280.42	8855.77
280.488	8848.5
280.557	8836.42
280.625	8837.19
280.693	8834.64
280.761	8833.39
280.83	8815.57
280.898	8826.26
280.966	8804.55
281.034	8768.07
281.102	8756.76
281.171	8751.12
281.239	8754.25
281.307	8748.53
281.375	8730.38
281.443	8759.7
281.512	8746.75
281.58	8750.6
281.648	8735.53
281.716	8732.93
281.784	8731.49
281.852	8722.92
281.92	8726.24
281.989	8736.88
282.057	8718.01
282.125	8758.84
282.193	8760.57
282.261	8761.83
282.329	8757.98
282.397	8765.87
282.465	8770.34
282.533	8782.76
282.601	8768.99
282.67	8751.57
282.738	8748.68
282.806	8767.26
282.874	8747.76
282.942	8755.56
283.01	8744.92
283.078	8747.33
283.146	8747.43
283.214	8757.15
283.282	8760.08
283.35	8769.66
283.418	8764.56
283.486	8773.42
283.554	8730.28
283.622	8730.66
283.69	8725.71
283.758	8721.28
283.826	8722.72
283.894	8735.57
283.962	8758.29
284.03	8775.91
284.098	8774.42
284.165	8767.39
284.233	8764.74
284.301	8762.63
284.369	8755.74
284.437	8749.39
284.505	8745.3
284.573	8760.75
284.641	8752.71
284.709	8761.57
284.777	8741.16
284.845	8752.62
284.912	8757.38
284.98	8759.11
285.048	8751.32
285.116	8756.51
285.184	8770.33
285.252	8774.56
285.319	8753.92
285.387	8735.96
285.455	8715.6
285.523	8722.73
285.591	8720.8
285.659	8722.05
285.726	8733.85
285.794	8721.72
285.862	8718.54
285.93	8723.35
285.997	8713.97
286.065	8708.58
286.133	8695.53
286.201	8695.87
286.269	8679.02
286.336	8675.7
286.404	8667.76
286.472	8674.35
286.539	8650.15
286.607	8627.33
286.675	8623.77
286.743	8635.71
286.81	8635.08
286.878	8649.76
286.946	8639.12
287.013	8639.27
287.081	8636.62
287.149	8623.77
287.216	8638.83
287.284	8639.12
287.352	8637.68
287.419	8637.82
287.487	8650.58
287.555	8655.92
287.622	8653.32
287.69	8661.65
287.758	8667.14
287.825	8669.54
287.893	8661.46
287.96	8670.41
288.028	8689.13
288.096	8691.44
288.163	8693.51
288.231	8684.17
288.298	8679.12
288.366	8696.2
288.433	8693.85
288.501	8682.49
288.569	8688.17
288.636	8687.83
288.704	8700.83
288.771	8706.26
288.839	8692.6
288.906	8683.98
288.974	8695.97
289.041	8690.67
289.109	8677
289.176	8682.44
289.244	8685.62
289.311	8701.94
289.379	8708.43
289.446	8712.81
289.514	8717.24
289.581	8717.24
289.649	8725.52
289.716	8730.38
289.783	8724.08
289.851	8744.05
289.918	8740.78
289.986	8745.45
290.053	8749.68
290.121	8745.16
290.188	8750.69
290.255	8782.7
290.323	8780.15
290.39	8771.24
290.458	8788.09
290.525	8802.29
290.592	8800.22
290.66	8803.15
290.727	8791.17
290.794	8808.49
290.862	8799.59
290.929	8800.02
290.996	8798.58
291.064	8807.87
291.131	8820.77
291.198	8835.4
291.266	8836.46
291.333	8845.75
291.4	8849.79
291.468	8862.17
291.535	8859.28
291.602	8861.97
291.669	8848.11
291.737	8850.85
291.804	8849.51
291.871	8860.96
291.938	8872.28
292.006	8903.62
292.073	8916.95
292.14	8928.07
292.207	8918.44
292.275	8919.21
292.342	8928.89
292.409	8955.99
292.476	8978.62
292.543	8972.89
292.611	8969.67
292.678	8986.61
292.745	9012.61
292.812	9023.44
292.879	9021.37
292.946	9026.42
293.014	9034.03
293.081	9053
293.148	9066
293.215	9080.53
293.282	9069.99
293.349	9078.8
293.416	9049.24
293.484	9059.35
293.551	9069.08
293.618	9086.36
293.685	9118.85
293.752	9114.09
293.819	9113.7
293.886	9094.59
293.953	9098.05
294.02	9109.32
294.087	9114.62
294.154	9102.87
294.221	9116.59
294.288	9116.26
294.356	9138.45
294.423	9147.31
294.49	9136.38
294.557	9146.3
294.624	9141.87
294.691	9166.18
294.758	9162.91
294.825	9176.92
294.892	9170.37
294.959	9174.65
295.026	9185.97
295.093	9176.87
295.16	9177.16
295.226	9179.08
295.293	9210.33
295.36	9220.44
295.427	9235.52
295.494	9255.26
295.561	9265.71
295.628	9289.84
295.695	9306.64
295.762	9304.04
295.829	9313.29
295.896	9327.25
295.963	9338.18
296.03	9346.89
296.096	9351.9
296.163	9365
296.23	9380.79
296.297	9398.66
296.364	9398.9
296.431	9400.01
296.498	9396.35
296.564	9422.78
296.631	9430.24
296.698	9412.19
296.765	9434.39
296.832	9426.44
296.899	9408.62
296.965	9433.85
297.032	9410.64
297.099	9423.74
297.166	9427.88
297.233	9423.45
297.299	9422.63
297.366	9423.11
297.433	9430.05
297.5	9441.41
297.566	9439.92
297.633	9436.64
297.7	9433.61
297.767	9436.02
297.833	9445.41
297.9	9450.03
297.967	9431.06
298.033	9439.2
298.1	9472.43
298.167	9456.44
298.234	9452.4
298.3	9460.63
298.367	9449.65
298.434	9458.85
298.5	9454.32
298.567	9458.27
298.634	9462.31
298.7	9477.1
298.767	9483.31
298.834	9491.93
298.9	9483.36
298.967	9473.34
299.033	9486.44
299.1	9502
299.167	9516.25
299.233	9511.72
299.3	9528.48
299.366	9547.84
299.433	9562.82
299.5	9536.62
299.566	9543.79
299.633	9569.75
299.699	9578.66
299.766	9580.63
299.832	9582.8
299.899	9587.67
299.965	9599.8
300.032	9593.64
300.099	9607.75
300.165	9614.35
300.232	9609.82
300.298	9613.53
300.365	9634.43
300.431	9637.27
300.498	9635.01
300.564	9637.85
300.631	9647.87
300.697	9664.97
300.763	9668.82
300.83	9667.37
300.896	9682.4
300.963	9694.34
301.029	9693.81
301.096	9700.75
301.162	9709.8
301.229	9711.39
301.295	9708.36
301.361	9712.02
301.428	9721.51
301.494	9706.72
301.561	9706.43
301.627	9711.29
301.693	9718.66
301.76	9718.18
301.826	9709.08
301.892	9719.72
301.959	9733.79
302.025	9736.34
302.092	9720.64
302.158	9724.88
302.224	9728.78
302.291	9717.56
302.357	9711.73
302.423	9705.8
302.49	9690.2
302.556	9702
302.622	9694.82
302.688	9694.58
302.755	9708.07
302.821	9709.32
302.887	9717.37
302.954	9720.59
303.02	9732.3
303.086	9737.5
303.152	9733.89
303.219	9734.51
303.285	9735.76
303.351	9733.4
303.417	9726.95
303.483	9724.06
303.55	9712.26
303.616	9700.51
303.682	9698.39
303.748	9692.85
303.815	9714
303.881	9729.6
303.947	9710.38
304.013	9716.65
304.079	9717.42
304.145	9692.85
304.212	9693.57
304.278	9681.78
304.344	9681.15
304.41	9670.46
304.476	9662.17
304.542	9661.31
304.608	9663.04
304.674	9644.11
304.741	9637.32
304.807	9643.82
304.873	9648.78
304.939	9672.14
305.005	9654.52
305.071	9654.08
305.137	9658.13
305.203	9627.93
305.269	9623.25
305.335	9635.58
305.401	9630.86
305.467	9627.44
305.533	9636.5
305.599	9647.67
305.666	9658.51
305.732	9654.32
305.798	9666.7
305.864	9691.98
305.93	9697.67
305.996	9700.27
306.062	9704.31
306.128	9701.09
306.194	9695.5
306.259	9690.06
306.325	9681.87
306.391	9701.47
306.457	9709.42
306.523	9707.78
306.589	9726.71
306.655	9723.29
306.721	9705.28
306.787	9691.45
306.853	9706.34
306.919	9688.47
306.985	9679.75
307.051	9669.01
307.117	9662.42
307.183	9652.93
307.248	9617.53
307.314	9622.15
307.38	9618.63
307.446	9625.62
307.512	9619.36
307.578	9623.59
307.644	9619.6
307.709	9616.42
307.775	9608.57
307.841	9606.69
307.907	9607.8
307.973	9588.34
308.039	9586.27
308.104	9592.48
308.17	9596.19
308.236	9580.15
308.302	9584.73
308.368	9573.26
308.433	9573.6
308.499	9571.58
308.565	9559.73
308.631	9566.95
308.696	9541.24
308.762	9527.42
308.828	9527.22
308.894	9511.91
308.959	9487.01
309.025	9476.47
309.091	9472.42
309.156	9462.5
309.222	9466.12
309.288	9452.49
309.354	9432.79
309.419	9424.9
309.485	9417.33
309.551	9417.96
309.616	9397.06
309.682	9392.3
309.748	9378.33
309.813	9379.01
309.879	9369.52
309.945	9360.61
310.01	9351.03
310.076	9351.32
310.141	9350.55
310.207	9331.81
310.273	9333.07
310.338	9334.94
310.404	9323.15
310.469	9307.5
310.535	9296.28
310.601	9264.79
310.666	9272.3
310.732	9282.36
310.797	9269.17
310.863	9254.1
310.928	9252.32
310.994	9257.23
311.059	9254.67
311.125	9261.51
311.191	9271.43
311.256	9259.49
311.322	9267.05
311.387	9241.92
311.453	9628.83
311.518	9601.29
311.584	9600.76
311.649	9602.79
311.715	9598.07
311.78	9604.28
311.846	9597.87
311.911	9615.5
311.976	9622.67
312.042	9605.34
312.107	9587.81
312.173	9588.29
312.238	9588.01
312.304	9578.13
312.369	9569.42
312.434	9552.71
312.5	9542.94
312.565	9499.7
312.631	9503.75
312.696	9493.44
312.761	9504.71
312.827	9112.45
312.892	9152.27
312.958	9143.99
313.023	9143.55
313.088	9135.32
313.154	9114.19
313.219	9107.98
313.284	9084.62
313.35	9081.3
313.415	9066.04
313.48	9061.57
313.546	9055.88
313.611	9060.07
313.676	9053.57
313.741	9049.72
313.807	9066.43
313.872	9067.92
313.937	9081.06
314.003	9090.79
314.068	9085.93
314.133	9091.56
314.198	9078.99
314.264	9057.57
314.329	9048.08
314.394	9037.68
314.459	9036.67
314.525	9060.79
314.59	9052.37
314.655	9037.44
314.72	9041.78
314.785	9049.96
314.851	9047.46
314.916	9030.99
314.981	9015.64
315.046	9013.37
315.111	9002.93
315.176	8986.75
315.242	8988.63
315.307	8981.31
315.372	8960.95
315.437	8955.65
315.502	8938.56
315.567	8952.62
315.632	8936.06
315.698	8936.59
315.763	8939.28
315.828	8926.14
315.893	8920.03
315.958	8916.85
316.023	8917.14
316.088	8899.57
316.153	8882.39
316.218	8875.17
316.283	8855.68
316.348	8837.48
316.413	8827.09
316.479	8810.05
316.544	8776.41
316.609	8755.28
316.674	8723.95
316.739	8685.55
316.804	8649.21
316.869	8616.59
316.934	8571.73
316.999	8541.75
317.064	8495.6
317.129	8453.01
317.194	8418.03
317.259	8367.84
317.324	8313.86
317.389	8267.38
317.454	8224.22
317.518	8189.68
317.583	8164.61
317.648	8147.49
317.713	8114.34
317.778	8052.24
317.843	8023.33
317.908	7984.42
317.973	7938.38
318.038	7908.03
318.103	7877.45
318.168	7848.35
318.233	7821.04
318.297	7773.53
318.362	7738.04
318.427	7691.45
318.492	7659.66
318.557	7614.76
318.622	7585.82
318.687	7569.37
318.751	7535.87
318.816	7508.8
318.881	7470.68
318.946	7412.08
319.011	7365.54
319.075	7323.44
319.14	7292.25
319.205	7246.26
319.27	7208.11
319.335	7157.94
319.399	7113.01
319.464	7083.07
319.529	7027.73
319.594	6987.36
319.658	6957.38
319.723	6916.69
319.788	6894.31
319.853	6841.65
319.917	6812.83
319.982	6759.85
320.047	6717.82
320.112	6687.23
320.176	6632.38
320.241	6594.53
320.306	6568.8
320.37	6524.91
320.435	6493.6
320.5	6462.49
320.564	6422.46
320.629	6387.66
320.694	6356.08
320.758	6317.73
320.823	6276.01
320.888	6249.86
320.952	6199.85
321.017	6157.38
321.082	6115.2
321.146	6080.32
321.211	6042.75
321.275	5996.94
321.34	5952.86
321.405	5906.71
321.469	5857.4
321.534	5816.11
321.598	5768.58
321.663	5732.12
321.727	5703.92
321.792	5653.48
321.857	5611.9
321.921	5571.1
321.986	5528.01
322.05	5471.56
322.115	5434.5
322.179	5385.24
322.244	5331.66
322.308	5301.66
322.373	5255.57
322.437	5215.27
322.502	5188.04
322.566	5145.02
322.631	5109.81
322.695	5072.89
322.76	5030.89
322.824	4994.73
322.889	4953.84
322.953	4909.03
323.018	4845.78
323.082	4778.23
323.146	4728.99
323.211	4673.75
323.275	4629.86
323.34	4585.84
323.404	4554.08
323.468	4509.43
323.533	4471.73
323.597	4425.06
323.662	4366.79
323.726	4330.49
323.79	4282.95
323.855	4214.1
323.919	4163.03
323.983	4122.62
324.048	4052.67
324.112	4199.77
324.177	4069.29
324.241	3857.03
324.305	3650.36
324.37	3447.32
324.434	3254.71
324.498	3210.67
324.562	3161.63
324.627	3104.35
324.691	3046.82
324.755	2979.85
324.82	2901.34
324.884	2816.2
324.948	2744.29
325.012	2653.78
325.077	2530.49
