Data from 20250703_urea_0.1M_MAYP1162681_00-41-04-824.txt Node
Date: Fri Jul 04 00:41:04 BST 2025
User: adleo
Spectrometer: MAYP116268
Trigger mode: 0
Integration Time (sec): 1.000000E0
Scans to average: 1
Electric dark correction enabled: true
Nonlinearity correction enabled: true
Boxcar width: 10
XAxis mode: Wavelengths
Number of Pixels in Spectrum: 2068
>>>>>Begin Spectral Data<<<<<
179.565	1348.44
179.642	1410.88
179.718	1459.56
179.795	1503.5
179.871	1542.45
179.948	1563.99
180.024	1586.39
180.101	1610.03
180.177	1626.81
180.254	1655.4
180.33	1681.46
180.407	1747
180.483	1854.1
180.56	1957.92
180.636	2051.79
180.712	2038.09
180.789	2050.51
180.865	2064.2
180.942	2073.23
181.018	2084.03
181.095	2097.88
181.171	2105.3
181.248	2107.58
181.324	2125.76
181.4	2132.56
181.477	2142.27
181.553	2155.06
181.63	2178.89
181.706	2198.35
181.782	2205.01
181.859	2200.68
181.935	2204.63
182.011	2202.63
182.088	2220.05
182.164	2239.19
182.24	2254.74
182.317	2265.73
182.393	2262.12
182.469	2279.63
182.546	2290.86
182.622	2296.62
182.698	2292.57
182.775	2307.66
182.851	2322.55
182.927	2313.46
183.003	2308.56
183.08	2304.52
183.156	2314.37
183.232	2309.13
183.308	2296.38
183.385	2308.46
183.461	2330.31
183.537	2331.55
183.613	2343.97
183.69	2333.64
183.766	2321.17
183.842	2329.69
183.918	2336.83
183.995	2350.01
184.071	2352.68
184.147	2348.63
184.223	2335.74
184.299	2343.45
184.375	2330.74
184.452	2336.12
184.528	2387.59
184.604	2401.29
184.68	2414.19
184.756	2423.81
184.832	2428.61
184.908	2431.61
184.985	2429.57
185.061	2407.86
185.137	2419.57
185.213	2405.39
185.289	2407.72
185.365	2402.68
185.441	2400.01
185.517	2413.44
185.593	2410.54
185.669	2406.16
185.745	2416.58
185.822	2433.81
185.898	2427.57
185.974	2435.33
186.05	2428.04
186.126	2390.43
186.202	2384.43
186.278	2381.01
186.354	2370.67
186.43	2383.53
186.506	2382.92
186.582	2383.91
186.658	2393.53
186.734	2369.16
186.81	2374.92
186.886	2377.44
186.962	2386.48
187.038	2385.15
187.114	2374.72
187.19	2379.19
187.266	2369.87
187.341	2372.53
187.417	2367.72
187.493	2370.68
187.569	2377.96
187.645	2372.3
187.721	2360.87
187.797	2367.92
187.873	2370.72
187.949	2365.49
188.025	2351.73
188.101	2357.25
188.176	2361.24
188.252	2355.72
188.328	2368.86
188.404	2367.19
188.48	2362.72
188.556	2357.38
188.632	2353.91
188.707	2353.81
188.783	2353.81
188.859	2348.82
188.935	2335.54
189.011	2342.96
189.086	2335.4
189.162	2322.54
189.238	2318.83
189.314	2319.93
189.39	2310.26
189.465	2302.5
189.541	2319.74
189.617	2307.89
189.693	2301.65
189.768	2306.84
189.844	2335.89
189.92	2323.71
189.996	2333.18
190.071	2345.23
190.147	2345.65
190.223	2355.46
190.298	2349.65
190.374	2336.04
190.45	2347.22
190.526	2357.12
190.601	2351.13
190.677	2352.12
190.753	2380.27
190.828	2386.36
190.904	2400.31
190.98	2417.45
191.055	2428.07
191.131	2416.78
191.207	2435.11
191.282	2447.48
191.358	2435.68
191.433	2415.58
191.509	2433.23
191.585	2428.9
191.66	2429.71
191.736	2436.66
191.811	2429.95
191.887	2446.52
191.963	2472.9
192.038	2481.75
192.114	2482.32
192.189	2488.84
192.265	2486.75
192.34	2465.17
192.416	2460.89
192.491	2456.79
192.567	2461.99
192.642	2467.08
192.718	2469.79
192.793	2460.37
192.869	2453.99
192.944	2458.27
193.02	2468.37
193.095	2469.56
193.171	2478.65
193.246	2480.98
193.322	2478.7
193.397	2476.08
193.473	2460.84
193.548	2441.7
193.624	2447.22
193.699	2443.7
193.775	2457.7
193.85	2458.84
193.925	2469.27
194.001	2471.18
194.076	2464.03
194.152	2450.03
194.227	2437.65
194.302	2425.42
194.378	2428.09
194.453	2428.42
194.529	2440.09
194.604	2425.23
194.679	2419.19
194.755	2395.06
194.83	2406.01
194.905	2404.25
194.981	2417.01
195.056	2406.87
195.131	2412.44
195.207	2413.73
195.282	2404.64
195.357	2384.35
195.433	2398.3
195.508	2384.78
195.583	2390.92
195.659	2408.16
195.734	2415.92
195.809	2419.44
195.884	2430.72
195.96	2430.91
196.035	2445.77
196.11	2441.15
196.185	2455.86
196.261	2459.29
196.336	2494.75
196.411	2481.27
196.486	2487.13
196.561	2480.65
196.637	2492.74
196.712	2509.18
196.787	2508.51
196.862	2527.08
196.937	2538.07
197.013	2547.08
197.088	2559.69
197.163	2586.04
197.238	2602.48
197.313	2604.87
197.388	2619.01
197.464	2650.08
197.539	2662.98
197.614	2655.13
197.689	2669.94
197.764	2686.43
197.839	2706.62
197.914	2702.29
197.989	2724.78
198.065	2739.59
198.14	2792.9
198.215	2823.78
198.29	2838.94
198.365	2852.28
198.44	2862.52
198.515	2895.22
198.59	2912.72
198.665	2941.46
198.74	2948.99
198.815	2949.76
198.89	2974.73
198.965	3007.59
199.04	3004.59
199.115	3020.41
199.19	3067.61
199.265	3071.52
199.34	3082.48
199.415	3124.99
199.49	3148.26
199.565	3160.09
199.64	3187.22
199.715	3182.69
199.79	3191.94
199.865	3197.09
199.94	3197.14
200.015	3234.4
200.09	3236.5
200.165	3245.42
200.24	3252.34
200.315	3300.38
200.39	3317.51
200.464	3325.76
200.539	3325.66
200.614	3343.36
200.689	3368.31
200.764	3375
200.839	3394.88
200.914	3399.61
200.989	3382.56
201.063	3394.78
201.138	3375.37
201.213	3374.75
201.288	3355
201.363	3359.96
201.438	3360.96
201.512	3379.28
201.587	3360.52
201.662	3366.77
201.737	3377.22
201.812	3383.57
201.886	3344.6
201.961	3354.81
202.036	3342.7
202.111	3339.02
202.186	3310.46
202.26	3293.76
202.335	3272.8
202.41	3268.42
202.485	3252.92
202.559	3235.65
202.634	3213.56
202.709	3224.52
202.784	3207.54
202.858	3211.98
202.933	3190.94
203.008	3187.65
203.082	3169.29
203.157	3170.91
203.232	3131.1
203.306	3115.02
203.381	3089.97
203.456	3069.32
203.53	3054.24
203.605	3038.51
203.68	3024.86
203.754	3028.01
203.829	3025.77
203.904	3014.8
203.978	3015.18
204.053	3032.54
204.127	3034.54
204.202	3047.52
204.277	3044.89
204.351	3054.15
204.426	3065.88
204.5	3078.09
204.575	3065.6
204.65	3102.91
204.724	3120.29
204.799	3154.8
204.873	3177.76
204.948	3207.1
205.022	3227.03
205.097	3251.77
205.171	3305.78
205.246	3354.19
205.32	3394.17
205.395	3432.8
205.469	3464.95
205.544	3519.55
205.618	3553.6
205.693	3615.26
205.767	3653.42
205.842	3733.77
205.916	3779.81
205.991	3830.04
206.065	3900.19
206.14	3980.34
206.214	4038.49
206.289	4097.12
206.363	4183.61
206.438	4260.05
206.512	4343.05
206.586	4445.07
206.661	4533.01
206.735	4591.47
206.81	4673.11
206.884	4771.95
206.958	4844.51
207.033	4956.14
207.107	5053.76
207.181	5178.73
207.256	5264.97
207.33	5382.41
207.405	5494.4
207.479	5621.71
207.553	5730.54
207.628	5813.47
207.702	5929.24
207.776	6027.05
207.851	6141.48
207.925	6264.66
207.999	6372.32
208.073	6478.75
208.148	6590.82
208.222	6689.61
208.296	6839.23
208.371	6977.15
208.445	7104.37
208.519	7255.57
208.593	7382.01
208.668	7496.28
208.742	7614.54
208.816	7743.22
208.89	7878.17
208.965	8000.13
209.039	8129.59
209.113	8276.17
209.187	8428.25
209.261	8553.91
209.336	8704.96
209.41	8851.51
209.484	8973.74
209.558	9122.72
209.632	9261.21
209.707	9402.38
209.781	9551.3
209.855	9691.3
209.929	9834.03
210.003	9966.96
210.077	10097.4
210.151	10283.17
210.226	10440.08
210.3	10602.94
210.374	10751.28
210.448	10883.93
210.522	11015.62
210.596	11146.3
210.67	11272.56
210.744	11446.78
210.818	11600.46
210.892	11739.84
210.966	11845.05
211.041	11980.96
211.115	12097.94
211.189	12247.16
211.263	12378.7
211.337	12498.82
211.411	12641.74
211.485	12751.07
211.559	12875.1
211.633	12983.75
211.707	13054.27
211.781	13186.64
211.855	13259.48
211.929	13355.17
212.003	13439.68
212.077	13561.54
212.151	13689.67
212.225	13809.22
212.299	13906.31
212.373	14004.69
212.447	14098.79
212.52	14244.85
212.594	14355.87
212.668	14477.44
212.742	14568.55
212.816	14674.11
212.89	14769.85
212.964	14861
213.038	14958.32
213.112	15078.11
213.186	15193.22
213.26	15272.75
213.333	15310.06
213.407	15403.86
213.481	15513.28
213.555	15628.78
213.629	15709.8
213.703	15779.55
213.777	15868.28
213.85	15935.28
213.924	16051.96
213.998	16149.85
214.072	16229.33
214.146	16303.65
214.219	16374.6
214.293	16454.7
214.367	16528.11
214.441	16623.82
214.515	16691.01
214.588	16747.98
214.662	16780.51
214.736	16831.93
214.81	16914.54
214.883	17000.38
214.957	17068.53
215.031	17121.01
215.105	17162.7
215.178	17214.22
215.252	17282.18
215.326	17325.69
215.4	17369.12
215.473	17386.18
215.547	17439.04
215.621	17484.68
215.694	17546.51
215.768	17587.04
215.842	17638.8
215.915	17692.87
215.989	17725.01
216.063	17768.96
216.136	17824.58
216.21	17883.66
216.284	17960.38
216.357	18021.58
216.431	18080.62
216.504	18144.52
216.578	18231.5
216.652	18307.55
216.725	18374.44
216.799	18431.83
216.873	18484.7
216.946	18552.74
217.02	18609.08
217.093	18653.22
217.167	18683.43
217.24	18721.84
217.314	18774.03
217.387	18801.69
217.461	18836.87
217.535	18896.29
217.608	18932
217.682	18987.03
217.755	19052.47
217.829	19085.91
217.902	19131.36
217.976	19171.4
218.049	19202.53
218.123	19223.16
218.196	19271.88
218.27	19299.78
218.343	19328.31
218.417	19368.64
218.49	19404.93
218.563	19459.87
218.637	19507.14
218.71	19582.32
218.784	19637.79
218.857	19691.62
218.931	19751.18
219.004	19805.25
219.077	19858.5
219.151	19909.58
219.224	19939.6
219.298	19985.82
219.371	20047.36
219.444	20067.99
219.518	20115.79
219.591	20162.44
219.665	20232.23
219.738	20263.12
219.811	20311.79
219.885	20374.68
219.958	20436.13
220.031	20481.28
220.105	20527.93
220.178	20575.16
220.251	20606.25
220.325	20647.22
220.398	20690.3
220.471	20737.68
220.544	20784.95
220.618	20828.23
220.691	20878.89
220.764	20930.74
220.838	20966.7
220.911	20987.76
220.984	21059.09
221.057	21112.25
221.131	21157.36
221.204	21161.51
221.277	21223.82
221.35	21281.33
221.424	21307.21
221.497	21342.44
221.57	21381.38
221.643	21412.71
221.716	21448.82
221.79	21470.79
221.863	21503.57
221.936	21526.18
222.009	21559.87
222.082	21591.92
222.155	21614.91
222.229	21657.52
222.302	21692.18
222.375	21714.06
222.448	21750.5
222.521	21767.66
222.594	21776.29
222.667	21792.82
222.74	21826.61
222.814	21852.4
222.887	21867.34
222.96	21907.74
223.033	21939.41
223.106	21953.58
223.179	21981.93
223.252	21999.38
223.325	22027.53
223.398	22053.46
223.471	22073.8
223.544	22085.18
223.617	22111.21
223.69	22119.21
223.763	22124.51
223.837	22142.45
223.91	22169.92
223.983	22168.77
224.056	22177.35
224.129	22204.83
224.202	22222.08
224.275	22237.41
224.348	22233.17
224.42	22229.51
224.493	22209.64
224.566	22204.29
224.639	22227.38
224.712	22225.55
224.785	22236.59
224.858	22238.23
224.931	22241.08
225.004	22244.59
225.077	22254.81
225.15	22223.24
225.223	22235.15
225.296	22252.55
225.369	22238.14
225.442	22236.45
225.514	22253.85
225.587	22263.88
225.66	22263.2
225.733	22271.59
225.806	22282.15
225.879	22286.29
225.952	22276.41
226.025	22302.3
226.097	22333.97
226.17	22333.64
226.243	22320.14
226.316	22319.66
226.389	22322.94
226.461	22324.57
226.534	22341.45
226.607	22333.16
226.68	22376.01
226.753	22377.17
226.825	22366.08
226.898	22385.07
226.971	22383.68
227.044	22381.41
227.117	22388.98
227.189	22396.26
227.262	22403.68
227.335	22403.63
227.407	22390.57
227.48	22405.27
227.553	22406.57
227.626	22388.01
227.698	22377.74
227.771	22394.76
227.844	22378.18
227.916	22373.5
227.989	22351.62
228.062	22327.08
228.134	22339.03
228.207	22317.73
228.28	22306.93
228.352	22294.25
228.425	22290.3
228.498	22300.52
228.57	22283.5
228.643	22287.84
228.716	22272.65
228.788	22253.03
228.861	22238.67
228.934	22249.99
229.006	22235.68
229.079	22216.11
229.151	22197.79
229.224	22175.9
229.296	22170.26
229.369	22193.45
229.442	22199.09
229.514	22193.31
229.587	22218.08
229.659	22192.44
229.732	22181.3
229.804	22186.7
229.877	22205.94
229.949	22199.04
230.022	22206.03
230.094	22203.72
230.167	22186.51
230.239	22174.02
230.312	22174.02
230.384	22186.75
230.457	22173.16
230.529	22175.62
230.602	22171.52
230.674	22157.63
230.747	22163.85
230.819	22155.37
230.892	22104.66
230.964	22100.08
231.037	22093.47
231.109	22071.15
231.181	22081.66
231.254	22060.02
231.326	22045.32
231.399	22028.25
231.471	22009.69
231.544	21967.32
231.616	21973.54
231.688	21961.48
231.761	21936.95
231.833	21912.7
231.905	21869.9
231.978	21861.13
232.05	21837.65
232.122	21823.48
232.195	21809.74
232.267	21808.49
232.339	21788.77
232.412	21795.96
232.484	21778.31
232.556	21750.36
232.629	21751.51
232.701	21738.5
232.773	21729.34
232.846	21695.36
232.918	21669.47
232.99	21650.82
233.062	21639.59
233.135	21614.48
233.207	21573.07
233.279	21559.43
233.351	21549.79
233.424	21533.55
233.496	21498.32
233.568	21501.88
233.64	21465.35
233.713	21439.51
233.785	21417.29
233.857	21386.78
233.929	21343.31
234.001	21334.06
234.074	21332.75
234.146	21281.18
234.218	21249.9
234.29	21230.14
234.362	21202.38
234.434	21158.86
234.507	21129.02
234.579	21079.81
234.651	21049.83
234.723	21046.65
234.795	21031.47
234.867	21006.27
234.939	20994.22
235.012	20976
235.084	20945.83
235.156	20930.26
235.228	20907.8
235.3	20873.77
235.372	20846.06
235.444	20833.05
235.516	20769.48
235.588	20742.68
235.66	20723.16
235.732	20688.51
235.804	20718.93
235.876	20710.54
235.948	20711.41
236.02	20681.14
236.092	20670.68
236.164	20639.94
236.236	20599.65
236.308	20570.01
236.38	20545
236.452	20502.88
236.524	20470.97
236.596	20460.42
236.668	20428.51
236.74	20386.3
236.812	20361.72
236.884	20340.08
236.956	20320.71
237.028	20286.69
237.1	20245.14
237.172	20228.47
237.244	20220.28
237.316	20142.01
237.388	20094.3
237.46	20048.56
237.532	20038.01
237.604	19985.34
237.675	19975.46
237.747	19956.52
237.819	19907.9
237.891	19868.23
237.963	19826.07
238.035	19783.37
238.107	19708.1
238.178	19689.35
238.25	19663.18
238.322	19652.87
238.394	19609.79
238.466	19568.44
238.538	19545.17
238.609	19517.75
238.681	19457.75
238.753	19406.96
238.825	19376.16
238.897	19355.34
238.968	19345.32
239.04	19291.35
239.112	19295.01
239.184	19242.48
239.255	19196.75
239.327	19180.56
239.399	19160.03
239.471	19142.15
239.542	19120.95
239.614	19109.43
239.686	19054.54
239.758	19045.39
239.829	18992.67
239.901	18969.29
239.973	18926.79
240.044	18901.78
240.116	18875.28
240.188	18846.75
240.259	18815.18
240.331	18771.04
240.403	18745.5
240.474	18683.63
240.546	18645.8
240.618	18587.53
240.689	18553.75
240.761	18533.37
240.833	18505.61
240.904	18458.24
240.976	18425.18
241.048	18392.12
241.119	18360.75
241.191	18334.25
241.262	18308.08
241.334	18265.38
241.405	18234.35
241.477	18200.76
241.549	18165.48
241.62	18127.85
241.692	18101.29
241.763	18081.34
241.835	18047.95
241.906	18012.33
241.978	17967.13
242.049	17953.73
242.121	17930.41
242.192	17904.05
242.264	17847.86
242.335	17789.11
242.407	17762.75
242.478	17721.83
242.55	17691.96
242.621	17647.19
242.693	17609.4
242.764	17565.65
242.836	17533.69
242.907	17500.34
242.979	17467.57
243.05	17432.01
243.122	17399.67
243.193	17369.89
243.264	17307.14
243.336	17269.84
243.407	17241.31
243.479	17229.07
243.55	17191.52
243.622	17165.26
243.693	17125.98
243.764	17111.28
243.836	17074.07
243.907	17028.34
243.978	16994.65
244.05	16968.09
244.121	16917.35
244.192	16891.61
244.264	16836.09
244.335	16801.63
244.407	16747.7
244.478	16725.09
244.549	16693.91
244.62	16641.14
244.692	16599.64
244.763	16576.7
244.834	16539.49
244.906	16493.75
244.977	16463.97
245.048	16446.76
245.119	16398.52
245.191	16361.98
245.262	16301.74
245.333	16288.24
245.405	16265.11
245.476	16234.74
245.547	16202.16
245.618	16190.79
245.689	16156.66
245.761	16133
245.832	16106.87
245.903	16097.04
245.974	16071.11
246.045	16035.93
246.117	16030.38
246.188	15983.87
246.259	15937.31
246.33	15910.08
246.401	15877.97
246.473	15828.57
246.544	15788.42
246.615	15774.11
246.686	15732.9
246.757	15723.69
246.828	15676.84
246.899	15664.4
246.97	15621.12
247.042	15579.42
247.113	15555.66
247.184	15543.23
247.255	15509.48
247.326	15474.73
247.397	15435.79
247.468	15404.5
247.539	15377.99
247.61	15323.33
247.681	15300.92
247.752	15293.73
247.823	15245.24
247.894	15212.22
247.965	15173.03
248.037	15130.42
248.108	15073.3
248.179	15046.36
248.25	15008.23
248.321	14985.24
248.392	14937.18
248.463	14932.84
248.534	14895.72
248.605	14863.14
248.675	14832.38
248.746	14804.91
248.817	14776.03
248.888	14755.6
248.959	14697.03
249.03	14670.08
249.101	14649.64
249.172	14619.51
249.243	14561.38
249.314	14552.22
249.385	14521.18
249.456	14501.41
249.527	14470.27
249.598	14451.95
249.669	14419.8
249.739	14397.43
249.81	14380.8
249.881	14332.64
249.952	14304.83
250.023	14283.76
250.094	14246.55
250.165	14218.25
250.235	14184.22
250.306	14159.15
250.377	14111.67
250.448	14101.89
250.519	14058.26
250.59	14051.46
250.66	14023.12
250.731	14024.23
250.802	14003.35
250.873	13992.12
250.944	13970.14
251.014	13938.76
251.085	13940.93
251.156	13931.91
251.227	13924.15
251.297	13911.13
251.368	13907.13
251.439	13891.85
251.51	13876.57
251.58	13842.92
251.651	13801.46
251.722	13795.82
251.792	13753.16
251.863	13728.67
251.934	13722.45
252.005	13731.81
252.075	13694.88
252.146	13680.03
252.217	13656.8
252.287	13633.99
252.358	13608.25
252.429	13601.07
252.499	13565.4
252.57	13535.51
252.641	13513.48
252.711	13485.08
252.782	13436.35
252.852	13443.72
252.923	13414.61
252.994	13398.79
253.064	13386.45
253.135	13352.47
253.205	13318.58
253.276	13320.56
253.347	13319.16
253.417	13283.97
253.488	13244.05
253.558	13220.62
253.629	13198.02
253.699	13182.25
253.77	13169.77
253.841	13141.85
253.911	13120.98
253.982	13117.32
254.052	13108.78
254.123	13091.29
254.193	13067.04
254.264	13097.65
254.334	13054.89
254.405	13021.05
254.475	12980.46
254.546	12958.82
254.616	12962.67
254.687	12949.95
254.757	12927.34
254.827	12903.67
254.898	12886.17
254.968	12863.61
255.039	12840.52
255.109	12835.51
255.18	12802.97
255.25	12753.22
255.321	12744.01
255.391	12704.39
255.461	12701.21
255.532	12651.84
255.602	12621.14
255.673	12577.27
255.743	12533.02
255.813	12483.51
255.884	12479.61
255.954	12475.41
256.024	12477.2
256.095	12452.18
256.165	12418.39
256.235	12408.22
256.306	12380.55
256.376	12366.42
256.446	12359.82
256.517	12348.54
256.587	12333.98
256.657	12320.2
256.728	12305.69
256.798	12283.32
256.868	12268.38
256.938	12240.61
257.009	12235.46
257.079	12231.6
257.149	12245.77
257.219	12203.69
257.29	12200.65
257.36	12152.12
257.43	12137.9
257.5	12094.71
257.571	12068.82
257.641	12060.92
257.711	12023.37
257.781	12005.2
257.852	11989.77
257.922	11952.46
257.992	11927.25
258.062	11903.92
258.132	11893.56
258.202	11876.31
258.273	11861.07
258.343	11851.92
258.413	11828.35
258.483	11804.82
258.553	11771.18
258.623	11747.66
258.693	11734.74
258.764	11724.47
258.834	11729.82
258.904	11710.59
258.974	11677.87
259.044	11666.69
259.114	11656.03
259.184	11644.9
259.254	11625.96
259.324	11584.75
259.394	11568.07
259.464	11569.86
259.535	11549.04
259.605	11524.21
259.675	11500.26
259.745	11482.14
259.815	11455.53
259.885	11431.87
259.955	11444.88
260.025	11419.29
260.095	11400.5
260.165	11392.64
260.235	11389.89
260.305	11363.68
260.375	11334.61
260.445	11342.61
260.515	11332.35
260.585	11317.55
260.655	11296.59
260.725	11295.53
260.795	11296.35
260.865	11302.85
260.934	11278.42
261.004	11268.39
261.074	11248.73
261.144	11246.95
261.214	11240.68
261.284	11228.49
261.354	11225.31
261.424	11197.02
261.494	11202.27
261.564	11179.04
261.634	11176.29
261.703	11140.63
261.773	11130.75
261.843	11120.68
261.913	11105.07
261.983	11073.6
262.053	11064.59
262.123	11053.98
262.192	11022.56
262.262	11011.48
262.332	10978.66
262.402	10965.17
262.472	10949.41
262.541	10916.02
262.611	10916.98
262.681	10893.32
262.751	10887.15
262.821	10862.53
262.89	10830.58
262.96	10818.39
263.03	10830.19
263.1	10812.65
263.169	10800.08
263.239	10789.09
263.309	10799.55
263.379	10791.74
263.448	10776.03
263.518	10768.52
263.588	10747.46
263.657	10752.95
263.727	10748.33
263.797	10728.28
263.867	10710.94
263.936	10677.64
264.006	10673.74
264.076	10654.27
264.145	10633.84
264.215	10605.51
264.285	10602.09
264.354	10568.13
264.424	10543.75
264.494	10509.39
264.563	10490.89
264.633	10503.27
264.702	10489.34
264.772	10447.76
264.842	10426.75
264.911	10422.71
264.981	10392.06
265.05	10378.52
265.12	10360.65
265.19	10348.89
265.259	10352.79
265.329	10347.59
265.398	10340.32
265.468	10357.95
265.537	10331.5
265.607	10322.01
265.676	10324.23
265.746	10315.55
265.815	10320.76
265.885	10307.17
265.955	10282.65
266.024	10263.09
266.094	10218.53
266.163	10220.6
266.232	10224.64
266.302	10210.29
266.371	10201.33
266.441	10193.57
266.51	10195.98
266.58	10180.81
266.649	10157.78
266.719	10153.44
266.788	10138.27
266.858	10140.87
266.927	10104.3
266.996	10101.07
267.066	10097.08
267.135	10069.28
267.205	10059.07
267.274	10047.99
267.343	10047.75
267.413	10033.59
267.482	10039.08
267.552	10047.94
267.621	10019.81
267.69	9982.14
267.76	9969.52
267.829	9959.36
267.898	9946.64
267.968	9921.83
268.037	9920
268.106	9920.1
268.176	9892.88
268.245	9886.24
268.314	9874.82
268.384	9873.95
268.453	9862.3
268.522	9851.7
268.592	9851.89
268.661	9832.62
268.73	9826.51
268.799	9811.58
268.869	9826.46
268.938	9794.04
269.007	9771.5
269.076	9760.23
269.146	9763.7
269.215	9759.41
269.284	9766.35
269.353	9744.34
269.422	9731.14
269.492	9709.85
269.561	9664.15
269.63	9657.26
269.699	9635.74
269.768	9620.76
269.838	9613.72
269.907	9606.69
269.976	9579.05
270.045	9551.51
270.114	9554.11
270.183	9536.96
270.253	9522.61
270.322	9495.11
270.391	9483.51
270.46	9489.48
270.529	9488.32
270.598	9486.44
270.667	9473.44
270.736	9443.44
270.806	9444.11
270.875	9447.19
270.944	9436.79
271.013	9465.73
271.082	9457.3
271.151	9458.36
271.22	9431.45
271.289	9414.64
271.358	9403.66
271.427	9402.84
271.496	9390.23
271.565	9367.69
271.634	9354.5
271.703	9388.21
271.772	9387.35
271.841	9378.44
271.91	9351.09
271.979	9339.39
272.048	9314.3
272.117	9314.54
272.186	9299.09
272.255	9291.72
272.324	9284.01
272.393	9273.76
272.462	9253.97
272.531	9247.56
272.6	9233.16
272.669	9242.45
272.738	9231.86
272.807	9222.81
272.876	9202.35
272.945	9234.61
273.013	9241.3
273.082	9250.07
273.151	9194.97
273.22	9191.32
273.289	9183.66
273.358	9199.07
273.427	9189.44
273.496	9196.32
273.564	9191.41
273.633	9195.36
273.702	9172.83
273.771	9167.87
273.84	9164.4
273.909	9165.37
273.977	9164.02
274.046	9154.34
274.115	9156.46
274.184	9142.98
274.253	9140.09
274.322	9148.56
274.39	9113.71
274.459	9094.88
274.528	9067.49
274.597	9064.5
274.665	9057.52
274.734	9064.84
274.803	9046.35
274.872	9037.49
274.94	9013.33
275.009	9068.14
275.078	9055
275.147	9060.63
275.215	9054.42
275.284	9061.69
275.353	9045.32
275.421	9013.88
275.49	9025.44
275.559	9014.27
275.627	9010.9
275.696	9003.05
275.765	9006.18
275.833	8999.83
275.902	8997.23
275.971	9008.01
276.039	9025.92
276.108	9023.95
276.177	9021.83
276.245	9013.31
276.314	9013.41
276.383	9022.02
276.451	8963.74
276.52	8969.47
276.588	8979.58
276.657	8982.03
276.725	8972.36
276.794	8977.8
276.863	8995.75
276.931	8970.62
277	8976.78
277.068	8983.76
277.137	9003.74
277.205	9000.42
277.274	9014.57
277.342	9021.55
277.411	8998.5
277.48	8977.32
277.548	8968.94
277.617	8974.09
277.685	8967.35
277.754	8969.09
277.822	8962.2
277.89	8968.75
277.959	8957.49
278.027	8935.25
278.096	8928.12
278.164	8956.82
278.233	8942.62
278.301	8930.92
278.37	8937.66
278.438	8919.9
278.507	8923.75
278.575	8891.93
278.643	8889.57
278.712	8868.92
278.78	8862.52
278.849	8876.67
278.917	8888.27
278.985	8886.25
279.054	8883.65
279.122	8896.16
279.191	8891.4
279.259	8886.97
279.327	8859.91
279.396	8879.99
279.464	8883.55
279.532	8885.67
279.601	8883.31
279.669	8883.45
279.737	8894.67
279.806	8898.85
279.874	8912.38
279.942	8904
280.011	8906.84
280.079	8909.15
280.147	8929.95
280.215	8936.35
280.284	8932.07
280.352	8920.18
280.42	8923.21
280.488	8911.75
280.557	8907.18
280.625	8912.91
280.693	8913.63
280.761	8920.27
280.83	8901.26
280.898	8908.24
280.966	8886.39
281.034	8848.5
281.102	8830.5
281.171	8827.46
281.239	8830.54
281.307	8821.59
281.375	8815.86
281.443	8835.7
281.512	8832.28
281.58	8836.27
281.648	8813.41
281.716	8812.98
281.784	8813.12
281.852	8807.06
281.92	8807.63
281.989	8813.7
282.057	8797.67
282.125	8849.14
282.193	8848.27
282.261	8845.72
282.329	8844.57
282.397	8852.61
282.465	8855.11
282.533	8872.34
282.601	8860.55
282.67	8845.91
282.738	8837.83
282.806	8851.5
282.874	8836.57
282.942	8839.32
283.01	8837.87
283.078	8847.69
283.146	8842.2
283.214	8846.97
283.282	8852.46
283.35	8863.77
283.418	8853.13
283.486	8854.38
283.554	8803.59
283.622	8806.19
283.69	8811.48
283.758	8801.66
283.826	8808.54
283.894	8817.98
283.962	8839.98
284.03	8853.55
284.098	8853.36
284.165	8846.86
284.233	8842.87
284.301	8835.65
284.369	8825.44
284.437	8811.77
284.505	8808.02
284.573	8830.98
284.641	8822.26
284.709	8825.01
284.777	8810.28
284.845	8821.83
284.912	8825.39
284.98	8834.83
285.048	8820.44
285.116	8822.22
285.184	8842.1
285.252	8843.93
285.319	8827.95
285.387	8813.84
285.455	8798.82
285.523	8802.82
285.591	8799.35
285.659	8800.27
285.726	8816.92
285.794	8803.69
285.862	8803.83
285.93	8801.38
285.997	8796.42
286.065	8793.77
286.133	8785.49
286.201	8777.55
286.269	8764.46
286.336	8754.4
286.404	8743.42
286.472	8757.05
286.539	8728.75
286.607	8705.79
286.675	8695.2
286.743	8704.58
286.81	8699.39
286.878	8712.96
286.946	8701.41
287.013	8702.32
287.081	8699.58
287.149	8685.47
287.216	8710.17
287.284	8701.6
287.352	8703.81
287.419	8691.3
287.487	8704.15
287.555	8709.73
287.622	8707.28
287.69	8712.33
287.758	8727.73
287.825	8729.95
287.893	8715.22
287.96	8728.5
288.028	8743.81
288.096	8750.83
288.163	8754.93
288.231	8739.81
288.298	8740.58
288.366	8760.94
288.433	8758.39
288.501	8753.82
288.569	8753
288.636	8741.69
288.704	8754.59
288.771	8758.78
288.839	8751.75
288.906	8746.6
288.974	8752.95
289.041	8753.72
289.109	8748.91
289.176	8759.5
289.244	8757.14
289.311	8770.19
289.379	8781.59
289.446	8776.92
289.514	8777.93
289.581	8772.93
289.649	8783.95
289.716	8788.72
289.783	8780.34
289.851	8805.94
289.918	8804.07
289.986	8818.17
290.053	8818.6
290.121	8821.2
290.188	8824.67
290.255	8861.01
290.323	8856.06
290.39	8851.43
290.458	8859.76
290.525	8869.82
290.592	8860.24
290.66	8860.39
290.727	8858.94
290.794	8870.59
290.862	8873.05
290.929	8878.97
290.996	8876.75
291.064	8880.07
291.131	8883.25
291.198	8897.5
291.266	8894.32
291.333	8895.72
291.4	8897.36
291.468	8916.61
291.535	8911.85
291.602	8920.13
291.669	8906.21
291.737	8911.51
291.804	8909.48
291.871	8925.8
291.938	8934.13
292.006	8968.8
292.073	8986.71
292.14	8990.03
292.207	8981.17
292.275	8983.24
292.342	8989.74
292.409	9022.33
292.476	9054.35
292.543	9048.48
292.611	9043.28
292.678	9063.21
292.745	9091.13
292.812	9104.27
292.879	9101.58
292.946	9110.82
293.014	9120.31
293.081	9128.39
293.148	9142.74
293.215	9160.89
293.282	9154.78
293.349	9158.24
293.416	9134.02
293.484	9148.56
293.551	9163.78
293.618	9180.91
293.685	9208.02
293.752	9196.56
293.819	9189.68
293.886	9169.89
293.953	9173.21
294.02	9184.43
294.087	9188.81
294.154	9183.18
294.221	9193.96
294.288	9198.97
294.356	9212.21
294.423	9218.86
294.49	9215.15
294.557	9225.12
294.624	9216.11
294.691	9239.8
294.758	9244.95
294.825	9248.76
294.892	9238.26
294.959	9241.34
295.026	9248.52
295.093	9237.1
295.16	9246.88
295.226	9247.21
295.293	9273.55
295.36	9282.84
295.427	9296.33
295.494	9306.44
295.561	9311.64
295.628	9337.17
295.695	9347.38
295.762	9349.74
295.829	9356.72
295.896	9375.45
295.963	9385.37
296.03	9401.6
296.096	9401.93
296.163	9412.24
296.23	9430.29
296.297	9445.27
296.364	9441.23
296.431	9452.11
296.498	9458.13
296.564	9483.7
296.631	9487.36
296.698	9476.76
296.765	9495.64
296.832	9490.24
296.899	9478.93
296.965	9503.87
297.032	9483.45
297.099	9503.2
297.166	9518.51
297.233	9511.19
297.299	9498.91
297.366	9505.51
297.433	9501.46
297.5	9514.18
297.566	9515.38
297.633	9516.1
297.7	9522.94
297.767	9524.2
297.833	9527.66
297.9	9525.01
297.967	9503.01
298.033	9514.66
298.1	9546.93
298.167	9542.26
298.234	9541.3
298.3	9551.46
298.367	9542.74
298.434	9547.41
298.5	9536.24
298.567	9523.43
298.634	9527.57
298.7	9551.75
298.767	9548.04
298.834	9566.77
298.9	9562.92
298.967	9556.56
299.033	9567.78
299.1	9579.25
299.167	9598.51
299.233	9593.74
299.3	9609.92
299.366	9629.23
299.433	9646.71
299.5	9616.03
299.566	9618.25
299.633	9637.61
299.699	9652.54
299.766	9647.15
299.832	9649.79
299.899	9659.62
299.965	9679.75
300.032	9676.77
300.099	9683.94
300.165	9696.85
300.232	9694.68
300.298	9693.38
300.365	9710.48
300.431	9706.29
300.498	9696.85
300.564	9707.2
300.631	9716.6
300.697	9728.97
300.763	9735.04
300.83	9733.36
300.896	9748.62
300.963	9759.85
301.029	9767.94
301.096	9769.62
301.162	9784.26
301.229	9783.25
301.295	9771.89
301.361	9766.59
301.428	9772.03
301.494	9757.48
301.561	9757.63
301.627	9756.81
301.693	9763.07
301.76	9765.77
301.826	9766.83
301.892	9778.58
301.959	9782.39
302.025	9783.98
302.092	9778.29
302.158	9782.29
302.224	9781.61
302.291	9776.89
302.357	9773.14
302.423	9764.03
302.49	9751.46
302.556	9765.38
302.622	9759.12
302.688	9771.98
302.755	9791.3
302.821	9802.37
302.887	9812.06
302.954	9807.24
303.02	9815.52
303.086	9816.34
303.152	9813.5
303.219	9811.62
303.285	9820.44
303.351	9821.45
303.417	9822.03
303.483	9811.04
303.55	9807.05
303.616	9807.14
303.682	9799.34
303.748	9790.24
303.815	9804.79
303.881	9818.66
303.947	9800.98
304.013	9813.26
304.079	9801.66
304.145	9776.8
304.212	9771.31
304.278	9762.4
304.344	9753.88
304.41	9739.76
304.476	9735.96
304.542	9729.99
304.608	9732.88
304.674	9712.31
304.741	9711.06
304.807	9711.88
304.873	9718.47
304.939	9737.93
305.005	9714.86
305.071	9716.74
305.137	9718.96
305.203	9690.92
305.269	9686.16
305.335	9695.69
305.401	9693.72
305.467	9696.37
305.533	9710.43
305.599	9722.42
305.666	9733.12
305.732	9738.08
305.798	9754.4
305.864	9779.93
305.93	9783.55
305.996	9785.09
306.062	9789.81
306.128	9782.82
306.194	9771.89
306.259	9768.81
306.325	9752.33
306.391	9771.84
306.457	9778
306.523	9785.32
306.589	9814.61
306.655	9808.49
306.721	9793.61
306.787	9770.97
306.853	9783.79
306.919	9764.38
306.985	9754.45
307.051	9744.92
307.117	9746.51
307.183	9742.8
307.248	9714.43
307.314	9717.56
307.38	9713.37
307.446	9718.43
307.512	9704.36
307.578	9712.4
307.644	9714.86
307.709	9712.45
307.775	9705.52
307.841	9710.57
307.907	9707.06
307.973	9688.8
308.039	9685.67
308.104	9689
308.17	9694.92
308.236	9679.99
308.302	9680.9
308.368	9668.72
308.433	9669.54
308.499	9653.64
308.565	9642.13
308.631	9642.23
308.696	9619.21
308.762	9610.01
308.828	9610.44
308.894	9600.72
308.959	9576.78
309.025	9562.96
309.091	9564.65
309.156	9558.92
309.222	9554.92
309.288	9546.06
309.354	9520.34
309.419	9521.11
309.485	9511.43
309.551	9517.45
309.616	9501.27
309.682	9500.45
309.748	9490.15
309.813	9484.8
309.879	9477.39
309.945	9464.29
310.01	9458.75
310.076	9465.2
310.141	9464.67
310.207	9442.67
310.273	9441.56
310.338	9451.53
310.404	9438.91
310.469	9418.54
310.535	9405.92
310.601	9380.5
310.666	9388.44
310.732	9398.6
310.797	9382.85
310.863	9371.49
310.928	9360.51
310.994	9368.46
311.059	9364.17
311.125	9371.1
311.191	9381.51
311.256	9370.29
311.322	9374.14
311.387	9350.55
311.453	9777.27
311.518	9746.41
311.584	9748
311.649	9756.86
311.715	9741.21
311.78	9739.72
311.846	9737.89
311.911	9742.7
311.976	9751.9
312.042	9731.53
312.107	9715.06
312.173	9704.04
312.238	9691.86
312.304	9693.2
312.369	9683.33
312.434	9673.75
312.5	9658.54
312.565	9626.75
312.631	9638.41
312.696	9628.39
312.761	9636.67
312.827	9198.44
312.892	9241.29
312.958	9238.26
313.023	9231.76
313.088	9230.32
313.154	9217.7
313.219	9203.89
313.284	9193.53
313.35	9181.69
313.415	9168.5
313.48	9163.63
313.546	9170.52
313.611	9186.46
313.676	9180.97
313.741	9171.05
313.807	9178.27
313.872	9185.83
313.937	9191.7
314.003	9197.19
314.068	9200.18
314.133	9207.45
314.198	9197.92
314.264	9170.03
314.329	9163.58
314.394	9156.6
314.459	9149.57
314.525	9178.55
314.59	9174.85
314.655	9167.87
314.72	9176.63
314.785	9182.45
314.851	9183.85
314.916	9167.53
314.981	9144.42
315.046	9130.03
315.111	9124.49
315.176	9110.91
315.242	9116.21
315.307	9112.5
315.372	9093.77
315.437	9078.94
315.502	9069.31
315.567	9076.1
315.632	9065.12
315.698	9061.27
315.763	9056.22
315.828	9052.46
315.893	9040.52
315.958	9036.67
316.023	9018.43
316.088	8995.85
316.153	8976.06
316.218	8969.85
316.283	8946.99
316.348	8937.66
316.413	8935.44
316.479	8917.97
316.544	8886.83
316.609	8847.93
316.674	8813.86
316.739	8782.91
316.804	8760.72
316.869	8718.99
316.934	8678.56
316.999	8648.2
317.064	8593.58
317.129	8555.65
317.194	8516.38
317.259	8462.34
317.324	8413.41
317.389	8376.6
317.454	8339.65
317.518	8301.93
317.583	8267.95
317.648	8251.21
317.713	8214.94
317.778	8152.73
317.843	8125.59
317.908	8091.29
317.973	8061.85
318.038	8035.01
318.103	7995.86
318.168	7962.33
318.233	7937.66
318.297	7891.39
318.362	7851.76
318.427	7818.3
318.492	7790.21
318.557	7746.46
318.622	7722.6
318.687	7707.36
318.751	7667.41
318.816	7637.31
318.881	7605.73
318.946	7553.66
319.011	7507.17
319.075	7465.01
319.14	7430.64
319.205	7382.48
319.27	7346.14
319.335	7295.72
319.399	7255.49
319.464	7225.16
319.529	7169.66
319.594	7127.89
319.658	7102.24
319.723	7060.39
319.788	7031.23
319.853	6975.39
319.917	6945.99
319.982	6889.93
320.047	6848.22
320.112	6824.93
320.176	6766.76
320.241	6739.04
320.306	6718.96
320.37	6672.29
320.435	6647.46
320.5	6624.21
320.564	6586.81
320.629	6545.23
320.694	6516.04
320.758	6474.36
320.823	6433.31
320.888	6406.87
320.952	6358.14
321.017	6313.65
321.082	6278.85
321.146	6242.23
321.211	6211.04
321.275	6169.63
321.34	6130.58
321.405	6086.24
321.469	6040.18
321.534	6001.95
321.598	5949.03
321.663	5909.59
321.727	5881.33
321.792	5826.8
321.857	5777.05
321.921	5741.75
321.986	5697.12
322.05	5640.4
322.115	5600.41
322.179	5559.9
322.244	5503.29
322.308	5475.68
322.373	5432.21
322.437	5391.8
322.502	5366.44
322.566	5319.52
322.631	5284.06
322.695	5241.09
322.76	5191.61
322.824	5150.07
322.889	5115.16
322.953	5069.47
323.018	5002.7
323.082	4936.91
323.146	4887.89
323.211	4838.86
323.275	4791.55
323.34	4748.71
323.404	4713.11
323.468	4666.29
323.533	4617.72
323.597	4572.66
323.662	4513.46
323.726	4480.73
323.79	4431.88
323.855	4367.12
323.919	4318.05
323.983	4271.41
324.048	4207.94
324.112	4348.51
324.177	4223.7
324.241	4001.25
324.305	3786.68
324.37	3577.62
324.434	3378.89
324.498	3333.61
324.562	3278.6
324.627	3213.29
324.691	3154.48
324.755	3086.12
324.82	3005.9
324.884	2925.2
324.948	2851.15
325.012	2754.05
325.077	2616.84
