Data from 20250703_urea_0.1M_MAYP1162681_01-11-05-695.txt Node
Date: Fri Jul 04 01:11:05 BST 2025
User: adleo
Spectrometer: MAYP116268
Trigger mode: 0
Integration Time (sec): 1.000000E0
Scans to average: 1
Electric dark correction enabled: true
Nonlinearity correction enabled: true
Boxcar width: 10
XAxis mode: Wavelengths
Number of Pixels in Spectrum: 2068
>>>>>Begin Spectral Data<<<<<
179.565	1345.86
179.642	1409.79
179.718	1455.9
179.795	1502.27
179.871	1539.92
179.948	1560.76
180.024	1581.38
180.101	1606.59
180.177	1623.57
180.254	1649.49
180.33	1671.43
180.407	1735.97
180.483	1841.92
180.56	1942.6
180.636	2037.9
180.712	2023.44
180.789	2033.33
180.865	2046.26
180.942	2053.06
181.018	2063.76
181.095	2078.37
181.171	2079.89
181.248	2081.46
181.324	2099.54
181.4	2105.82
181.477	2117.67
181.553	2132.13
181.63	2157.63
181.706	2173.95
181.782	2183.17
181.859	2180.84
181.935	2188.79
182.011	2186.36
182.088	2206.06
182.164	2228.29
182.24	2242.33
182.317	2253.65
182.393	2255.65
182.469	2271.78
182.546	2286.19
182.622	2294.71
182.698	2291.33
182.775	2306.04
182.851	2321.27
182.927	2313.51
183.003	2308.23
183.08	2302.56
183.156	2311.65
183.232	2307.84
183.308	2297.76
183.385	2304.85
183.461	2325.74
183.537	2329.21
183.613	2340.16
183.69	2328.5
183.766	2316.74
183.842	2324.64
183.918	2329.87
183.995	2342.39
184.071	2345.77
184.147	2340.63
184.223	2324.55
184.299	2336.5
184.375	2325.79
184.452	2329.41
184.528	2382.02
184.604	2393.58
184.68	2402.72
184.756	2412.34
184.832	2416.48
184.908	2421.28
184.985	2421
185.061	2403.96
185.137	2412.19
185.213	2400.34
185.289	2401.63
185.365	2393.4
185.441	2390.97
185.517	2406.45
185.593	2402.35
185.669	2398.02
185.745	2411.44
185.822	2429.67
185.898	2418.67
185.974	2428.57
186.05	2422.09
186.126	2384.29
186.202	2376.53
186.278	2375.77
186.354	2363.39
186.43	2370.49
186.506	2368.35
186.582	2368.87
186.658	2374.39
186.734	2351.59
186.81	2356.54
186.886	2356.4
186.962	2369.01
187.038	2366.54
187.114	2358.25
187.19	2366.29
187.266	2356.78
187.341	2358.87
187.417	2353.78
187.493	2356.25
187.569	2359.11
187.645	2354.02
187.721	2344.31
187.797	2351.68
187.873	2355.59
187.949	2349.02
188.025	2341.02
188.101	2343.11
188.176	2346.21
188.252	2343.83
188.328	2351.63
188.404	2348.49
188.48	2347.82
188.556	2340.87
188.632	2339.63
188.707	2339.11
188.783	2336.54
188.859	2332.73
188.935	2318.64
189.011	2324.88
189.086	2318.5
189.162	2307.22
189.238	2303.13
189.314	2299.51
189.39	2293.04
189.465	2284.56
189.541	2303.46
189.617	2287
189.693	2282.52
189.768	2290.33
189.844	2317.38
189.92	2310.77
189.996	2321
190.071	2332.28
190.147	2333.38
190.223	2344.28
190.298	2336.42
190.374	2321.86
190.45	2333.99
190.526	2343.56
190.601	2341.8
190.677	2342.99
190.753	2373.09
190.828	2379.08
190.904	2393.65
190.98	2411.79
191.055	2423.5
191.131	2415.59
191.207	2439.15
191.282	2452.05
191.358	2440.96
191.433	2424.81
191.509	2436.13
191.585	2433.37
191.66	2431.33
191.736	2436.51
191.811	2427.9
191.887	2444.14
191.963	2470.8
192.038	2475.89
192.114	2476.27
192.189	2475.89
192.265	2473.99
192.34	2452.55
192.416	2447.84
192.491	2445.56
192.567	2448.51
192.642	2453.08
192.718	2453.89
192.793	2439.04
192.869	2432.9
192.944	2433.9
193.02	2441.52
193.095	2448.85
193.171	2453.32
193.246	2453.32
193.322	2453.89
193.397	2453.85
193.473	2436.46
193.548	2414.09
193.624	2420.61
193.699	2419.09
193.775	2437.04
193.85	2434.76
193.925	2443.61
194.001	2446.99
194.076	2438.99
194.152	2427.71
194.227	2419.9
194.302	2406.24
194.378	2411
194.453	2407.43
194.529	2421.19
194.604	2403.86
194.679	2399.67
194.755	2382.3
194.83	2397.4
194.905	2395.68
194.981	2404.44
195.056	2398.45
195.131	2407.21
195.207	2404.92
195.282	2393.73
195.357	2370.26
195.433	2389.87
195.508	2376.25
195.583	2383.82
195.659	2396.2
195.734	2402.2
195.809	2399.39
195.884	2410.91
195.96	2415.24
196.035	2432.38
196.11	2429.43
196.185	2441.23
196.261	2443.9
196.336	2478.08
196.411	2463.84
196.486	2465.32
196.561	2457.89
196.637	2468.27
196.712	2486.65
196.787	2490.89
196.862	2509.32
196.937	2525.46
197.013	2530.6
197.088	2541.74
197.163	2563.61
197.238	2587.39
197.313	2588.15
197.388	2601.3
197.464	2634.27
197.539	2642.74
197.614	2634.98
197.689	2646.99
197.764	2667.76
197.839	2687.77
197.914	2679.71
197.989	2704.87
198.065	2722.73
198.14	2775.6
198.215	2803.62
198.29	2810.91
198.365	2825.06
198.44	2835.21
198.515	2863.19
198.59	2879.83
198.665	2911.43
198.74	2920.63
198.815	2919.48
198.89	2943.74
198.965	2975.59
199.04	2969.44
199.115	2990.03
199.19	3039.09
199.265	3043.19
199.34	3053.25
199.415	3090.12
199.49	3113.91
199.565	3122.68
199.64	3146.62
199.715	3145.14
199.79	3153.92
199.865	3164.12
199.94	3163.65
200.015	3197.04
200.09	3202.52
200.165	3210.54
200.24	3216.6
200.315	3263.1
200.39	3278.04
200.464	3287.91
200.539	3293.07
200.614	3313.86
200.689	3337.96
200.764	3343.83
200.839	3364.15
200.914	3367.49
200.989	3355.93
201.063	3372.92
201.138	3357.62
201.213	3359.67
201.288	3340.73
201.363	3346.93
201.438	3351.84
201.512	3366.67
201.587	3348.64
201.662	3354.74
201.737	3367.06
201.812	3371.88
201.886	3334.77
201.961	3349.04
202.036	3335.92
202.111	3335.11
202.186	3302.35
202.26	3282.88
202.335	3259.41
202.41	3253.68
202.485	3238.9
202.559	3220.06
202.634	3193.63
202.709	3201.44
202.784	3183.51
202.858	3183.8
202.933	3164.24
203.008	3155.8
203.082	3143.02
203.157	3145.02
203.232	3103.87
203.306	3086.84
203.381	3066.99
203.456	3047.34
203.53	3030.11
203.605	3015.05
203.68	2998.4
203.754	3001.54
203.829	2996.15
203.904	2985
203.978	2988.67
204.053	3005.27
204.127	3004.27
204.202	3020.05
204.277	3019.77
204.351	3030.3
204.426	3040.47
204.5	3057.16
204.575	3043.52
204.65	3075.83
204.724	3096.68
204.799	3130.81
204.873	3156.54
204.948	3183.64
205.022	3202.38
205.097	3225.25
205.171	3277.25
205.246	3323.71
205.32	3360.67
205.395	3402.35
205.469	3440.04
205.544	3488.04
205.618	3517.5
205.693	3579.58
205.767	3615.2
205.842	3695.46
205.916	3742.41
205.991	3793.96
206.065	3858.85
206.14	3940.71
206.214	3995.13
206.289	4054.66
206.363	4137.94
206.438	4208.69
206.512	4290.73
206.586	4389.34
206.661	4471.37
206.735	4527.67
206.81	4605.62
206.884	4709.6
206.958	4783.36
207.033	4887.52
207.107	4986.32
207.181	5112.6
207.256	5199.79
207.33	5310.69
207.405	5419.46
207.479	5542.41
207.553	5647.91
207.628	5732.61
207.702	5847.89
207.776	5952.02
207.851	6061.93
207.925	6177.64
207.999	6284.33
208.073	6387.05
208.148	6497.09
208.222	6601.63
208.296	6750.6
208.371	6882.63
208.445	7013.84
208.519	7160.51
208.593	7289.29
208.668	7399.32
208.742	7514.58
208.816	7639.55
208.89	7782.32
208.965	7898.06
209.039	8029.24
209.113	8172.48
209.187	8317.86
209.261	8433.22
209.336	8573.52
209.41	8707.54
209.484	8832.92
209.558	8981.56
209.632	9117.05
209.707	9255.51
209.781	9404.47
209.855	9545.33
209.929	9693.87
210.003	9819.34
210.077	9942.4
210.151	10111.24
210.226	10277.2
210.3	10440.49
210.374	10586.5
210.448	10705.17
210.522	10832.81
210.596	10952.98
210.67	11076
210.744	11242.97
210.818	11401.03
210.892	11544.35
210.966	11663.1
211.041	11807.64
211.115	11922.15
211.189	12070.41
211.263	12202.04
211.337	12318.64
211.411	12441.21
211.485	12541.43
211.559	12668.44
211.633	12784.52
211.707	12871.43
211.781	12987.17
211.855	13051.29
211.929	13151.36
212.003	13252.16
212.077	13379.23
212.151	13504.46
212.225	13622.62
212.299	13717.34
212.373	13808.4
212.447	13906.5
212.52	14043.4
212.594	14143.57
212.668	14253.1
212.742	14334.13
212.816	14424.47
212.89	14507.04
212.964	14607.36
213.038	14704.49
213.112	14816.51
213.186	14917.26
213.26	14991.35
213.333	15033.04
213.407	15125.64
213.481	15216.75
213.555	15311.03
213.629	15382.61
213.703	15463.69
213.777	15556.18
213.85	15627.33
213.924	15749.75
213.998	15836.95
214.072	15913.77
214.146	15982.46
214.219	16065.26
214.293	16150.43
214.367	16241.33
214.441	16347.13
214.515	16420.24
214.588	16480
214.662	16514.61
214.736	16573.17
214.81	16645.56
214.883	16726.2
214.957	16801.67
215.031	16865.58
215.105	16919.42
215.178	16982.75
215.252	17043.28
215.326	17084.53
215.4	17137.45
215.473	17153.79
215.547	17200.1
215.621	17253.88
215.694	17326.75
215.768	17376.44
215.842	17419.81
215.915	17465.21
215.989	17501.79
216.063	17545.5
216.136	17609.3
216.21	17667.62
216.284	17744.77
216.357	17804.67
216.431	17856.82
216.504	17924.77
216.578	18011.42
216.652	18079.8
216.725	18130.4
216.799	18189.29
216.873	18252.32
216.946	18308.17
217.02	18350.2
217.093	18402
217.167	18424.36
217.24	18459.97
217.314	18499.3
217.387	18544.79
217.461	18593.03
217.535	18655.34
217.608	18693.02
217.682	18733.36
217.755	18801.35
217.829	18837.93
217.902	18892.29
217.976	18947.13
218.049	18979.32
218.123	19005.34
218.196	19047.55
218.27	19088.52
218.343	19115.45
218.417	19159.21
218.49	19199.79
218.563	19271.06
218.637	19319.73
218.71	19394.62
218.784	19449.03
218.857	19512.54
218.931	19561.6
219.004	19604.58
219.077	19644.15
219.151	19695.95
219.224	19739.08
219.298	19775.18
219.371	19828.33
219.444	19852.76
219.518	19887.75
219.591	19934.35
219.665	20008.09
219.738	20059.17
219.811	20091.36
219.885	20148.47
219.958	20200.32
220.031	20241.53
220.105	20282.44
220.178	20328.56
220.251	20361.04
220.325	20411.45
220.398	20451.94
220.471	20497.43
220.544	20539.07
220.618	20578.97
220.691	20624.52
220.764	20670.83
220.838	20714.2
220.911	20747.94
220.984	20818.98
221.057	20873.68
221.131	20922.55
221.204	20920.96
221.277	20981.21
221.35	21053.07
221.424	21083.43
221.497	21111.58
221.57	21147.53
221.643	21189.51
221.716	21222.81
221.79	21248.98
221.863	21273.13
221.936	21296.03
222.009	21325.23
222.082	21359.55
222.155	21384.32
222.229	21427.9
222.302	21459.37
222.375	21482.89
222.448	21512.92
222.521	21534.22
222.594	21559.09
222.667	21559.96
222.74	21596.98
222.814	21613.32
222.887	21630.14
222.96	21665.96
223.033	21707.94
223.106	21732.43
223.179	21755.95
223.252	21781.88
223.325	21802.71
223.398	21820.44
223.471	21840.35
223.544	21856.79
223.617	21872.5
223.69	21898.1
223.763	21906.39
223.837	21928.13
223.91	21947.6
223.983	21948.66
224.056	21948.86
224.129	21966.79
224.202	22004.39
224.275	22018.03
224.348	22013.21
224.42	22010.99
224.493	22011.47
224.566	22003.61
224.639	22021.64
224.712	22026.7
224.785	22029.35
224.858	22038.37
224.931	22044.2
225.004	22048.44
225.077	22067.44
225.15	22056.35
225.223	22059
225.296	22096.31
225.369	22089.81
225.442	22088.89
225.514	22099.4
225.587	22110.15
225.66	22117.52
225.733	22121.62
225.806	22130.73
225.879	22141.19
225.952	22133.82
226.025	22144.38
226.097	22171.71
226.17	22176.53
226.243	22155.27
226.316	22155.18
226.389	22159.18
226.461	22163.71
226.534	22158.79
226.607	22160.96
226.68	22192.05
226.753	22193.4
226.825	22156.96
226.898	22173.35
226.971	22172.29
227.044	22185.54
227.117	22192.87
227.189	22200.92
227.262	22205.45
227.335	22204.34
227.407	22195.38
227.48	22207.96
227.553	22211.43
227.626	22208.25
227.698	22199.91
227.771	22210.95
227.844	22206.95
227.916	22208.1
227.989	22190.7
228.062	22185.69
228.134	22199.38
228.207	22185.01
228.28	22170.5
228.352	22164.72
228.425	22147.7
228.498	22163.27
228.57	22143.65
228.643	22153.1
228.716	22136.18
228.788	22123.21
228.861	22106.53
228.934	22114.2
229.006	22103.5
229.079	22091.01
229.151	22066.28
229.224	22045.55
229.296	22034.18
229.369	22050.33
229.442	22054.14
229.514	22042.18
229.587	22052.16
229.659	22020.25
229.732	22019.28
229.804	22027.43
229.877	22048.83
229.949	22051.73
230.022	22053.17
230.094	22050.95
230.167	22046.76
230.239	22030.76
230.312	22022.85
230.384	22043.68
230.457	22041.22
230.529	22041.8
230.602	22034.47
230.674	22027.82
230.747	22034.56
230.819	22046.57
230.892	22007.52
230.964	22001.01
231.037	22008.82
231.109	21990.36
231.181	21993.45
231.254	21972.96
231.326	21961.05
231.399	21940.81
231.471	21926.25
231.544	21897.33
231.616	21892.84
231.688	21870.81
231.761	21848.59
231.833	21827.63
231.905	21775.57
231.978	21754.26
232.05	21731.12
232.122	21713.63
232.195	21686.1
232.267	21687.02
232.339	21663.02
232.412	21656.99
232.484	21636.36
232.556	21605.17
232.629	21615.78
232.701	21603.78
232.773	21588.98
232.846	21560.54
232.918	21535.72
232.99	21516.97
233.062	21501.45
233.135	21489.78
233.207	21461.39
233.279	21455.99
233.351	21447.37
233.424	21433.1
233.496	21395.8
233.568	21394.06
233.64	21357.29
233.713	21344.27
233.785	21318.1
233.857	21299.35
233.929	21258.91
234.001	21256.02
234.074	21247.73
234.146	21206.67
234.218	21185.03
234.29	21159.29
234.362	21127.09
234.434	21093.55
234.507	21061.02
234.579	21015.28
234.651	20970.07
234.723	20952.72
234.795	20926.84
234.867	20905.54
234.939	20903.32
235.012	20881.15
235.084	20865.05
235.156	20849.58
235.228	20813.73
235.3	20771.27
235.372	20749.05
235.444	20737.96
235.516	20689.38
235.588	20666.73
235.66	20639.36
235.732	20599.07
235.804	20635.69
235.876	20621.04
235.948	20612.37
236.02	20580.95
236.092	20562.2
236.164	20547.7
236.236	20505.24
236.308	20477.57
236.38	20433.14
236.452	20393.62
236.524	20377.29
236.596	20359.26
236.668	20340.13
236.74	20315.36
236.812	20296.8
236.884	20264.13
236.956	20239.41
237.028	20191.55
237.1	20142.59
237.172	20131.07
237.244	20119.46
237.316	20045.43
237.388	20012.81
237.46	19973.87
237.532	19961.48
237.604	19912.91
237.675	19892.67
237.747	19869.87
237.819	19829.25
237.891	19807.71
237.963	19762.94
238.035	19726.55
238.107	19647.28
238.178	19634.75
238.25	19602.94
238.322	19599.23
238.394	19554.51
238.466	19514.95
238.538	19489.12
238.609	19467.05
238.681	19404.26
238.753	19357.56
238.825	19328.65
238.897	19299.01
238.968	19281.52
239.04	19241.28
239.112	19245.62
239.184	19199.11
239.255	19165.19
239.327	19136.66
239.399	19102.2
239.471	19081.67
239.542	19047.8
239.614	19039.17
239.686	18976.81
239.758	18955.42
239.829	18906.99
239.901	18878.12
239.973	18846.07
240.044	18832.05
240.116	18808.73
240.188	18784.58
240.259	18749.89
240.331	18703
240.403	18670.13
240.474	18609.94
240.546	18564.21
240.618	18499.54
240.689	18459.06
240.761	18425.28
240.833	18405.33
240.904	18373.09
240.976	18345.04
241.048	18310.44
241.119	18278.97
241.191	18249
241.262	18233.72
241.334	18186.16
241.405	18151.8
241.477	18108.81
241.549	18057.44
241.62	18018.69
241.692	17982.07
241.763	17965.3
241.835	17938.17
241.906	17911.04
241.978	17871.47
242.049	17849.3
242.121	17836.77
242.192	17808.63
242.264	17760
242.335	17711.23
242.407	17673.93
242.478	17623.72
242.55	17595.23
242.621	17557.6
242.693	17523.77
242.764	17484.25
242.836	17451.57
242.907	17426.08
242.979	17397.31
243.05	17368.06
243.122	17338.9
243.193	17319.96
243.264	17257.93
243.336	17219.28
243.407	17191.48
243.479	17166.03
243.55	17141.98
243.622	17104.82
243.693	17078.46
243.764	17065.35
243.836	17018.41
243.907	16990.99
243.978	16961.78
244.05	16933.15
244.121	16880.28
244.192	16846.59
244.264	16784.91
244.335	16755.36
244.407	16707.02
244.478	16684.9
244.549	16645.04
244.62	16600.22
244.692	16557.32
244.763	16538.19
244.834	16493.22
244.906	16446.23
244.977	16423.05
245.048	16400.88
245.119	16370.23
245.191	16324.44
245.262	16265.78
245.333	16257.64
245.405	16230.26
245.476	16204.28
245.547	16176.91
245.618	16150.93
245.689	16124.03
245.761	16101.19
245.832	16061.09
245.903	16037.52
245.974	16002.91
246.045	15976.35
246.117	15963.19
246.188	15914.99
246.259	15870.26
246.33	15840.86
246.401	15809.34
246.473	15758.25
246.544	15713.18
246.615	15681.9
246.686	15648.01
246.757	15637.89
246.828	15591.09
246.899	15569.45
246.97	15519.17
247.042	15471.6
247.113	15454.05
247.184	15450.15
247.255	15412.79
247.326	15383.58
247.397	15350.76
247.468	15328.49
247.539	15299.95
247.61	15255.56
247.681	15241.48
247.752	15221.34
247.823	15179.06
247.894	15155.83
247.965	15125.41
248.037	15092.1
248.108	15044.53
248.179	15019.07
248.25	14980.95
248.321	14961.33
248.392	14911.49
248.463	14905.07
248.534	14881.12
248.605	14861.4
248.675	14811.46
248.746	14795.32
248.817	14781.87
248.888	14764.22
248.959	14710.67
249.03	14689.46
249.101	14659.72
249.172	14620.86
249.243	14566.73
249.314	14565.91
249.385	14534.29
249.456	14515.25
249.527	14483.19
249.598	14464.01
249.669	14432.96
249.739	14409.68
249.81	14387.02
249.881	14345.66
249.952	14315.92
250.023	14282.22
250.094	14241.59
250.165	14206.01
250.235	14167.69
250.306	14135.53
250.377	14089.5
250.448	14073.25
250.519	14020.66
250.59	14007.79
250.66	13981.85
250.731	13981.95
250.802	13943.29
250.873	13925.16
250.944	13902.07
251.014	13880.04
251.085	13883.51
251.156	13867.65
251.227	13858.3
251.297	13848.08
251.368	13840.32
251.439	13828.27
251.51	13819.45
251.58	13777.94
251.651	13755.04
251.722	13747.52
251.792	13700.95
251.863	13669.38
251.934	13661.09
252.005	13673.38
252.075	13646.14
252.146	13636.98
252.217	13624.69
252.287	13614.04
252.358	13587.86
252.429	13578.17
252.499	13535.8
252.57	13505.52
252.641	13485.86
252.711	13454.62
252.782	13406.12
252.852	13403.86
252.923	13374.64
252.994	13348.13
253.064	13337.43
253.135	13310.91
253.205	13282.81
253.276	13286.86
253.347	13294.81
253.417	13263.19
253.488	13232.77
253.558	13206.11
253.629	13178.68
253.699	13164.56
253.77	13144.84
253.841	13118.47
253.911	13103
253.982	13091.09
254.052	13075.86
254.123	13056.05
254.193	13044.77
254.264	13069.4
254.334	13033.15
254.405	13000.03
254.475	12973.13
254.546	12951.68
254.616	12937.61
254.687	12915.14
254.757	12904.05
254.827	12874.94
254.898	12860.38
254.968	12830.3
255.039	12799.74
255.109	12790.34
255.18	12747.34
255.25	12703.13
255.321	12691.42
255.391	12649.14
255.461	12650.45
255.532	12610.05
255.602	12585.42
255.673	12536.92
255.743	12504.1
255.813	12454.25
255.884	12442.59
255.954	12430.2
256.024	12440.71
256.095	12421.57
256.165	12389.03
256.235	12358.18
256.306	12331.43
256.376	12317.55
256.446	12313.74
256.517	12304.19
256.587	12291.23
256.657	12278.16
256.728	12263.22
256.798	12242.88
256.868	12222.1
256.938	12194.44
257.009	12182.82
257.079	12168.55
257.149	12180.12
257.219	12132.54
257.29	12129.65
257.36	12096.15
257.43	12089.4
257.5	12036.14
257.571	12013.2
257.641	12000.71
257.711	11976.23
257.781	11960.22
257.852	11946.39
257.922	11903.39
257.992	11884.21
258.062	11862.62
258.132	11856.78
258.202	11835.09
258.273	11816.87
258.343	11823.57
258.413	11791.71
258.483	11771.37
258.553	11742.5
258.623	11710.45
258.693	11700.14
258.764	11696.13
258.834	11697.97
258.904	11672.71
258.974	11648.27
259.044	11625.43
259.114	11615.84
259.184	11601.52
259.254	11583.5
259.324	11542.29
259.394	11531.54
259.464	11524.79
259.535	11503.25
259.605	11473.22
259.675	11452.64
259.745	11433.51
259.815	11392.44
259.885	11373.7
259.955	11390.42
260.025	11365.89
260.095	11347.24
260.165	11329.89
260.235	11328.2
260.305	11291.38
260.375	11261.7
260.445	11266.76
260.515	11276.06
260.585	11264.88
260.655	11245.99
260.725	11242.27
260.795	11239
260.865	11241.31
260.934	11222.47
261.004	11208.68
261.074	11196.15
261.144	11195.86
261.214	11189.6
261.284	11178.27
261.354	11174.71
261.424	11142.13
261.494	11149.11
261.564	11137.21
261.634	11134.56
261.703	11093.16
261.773	11091.09
261.843	11087.86
261.913	11074.13
261.983	11031.19
262.053	11021.6
262.123	10998.13
262.192	10962.57
262.262	10957.89
262.332	10932.69
262.402	10921.46
262.472	10907.01
262.541	10864.07
262.611	10860.12
262.681	10838.68
262.751	10832.13
262.821	10814.49
262.89	10781.43
262.96	10771.02
263.03	10779.26
263.1	10763.22
263.169	10754.69
263.239	10748.52
263.309	10749.68
263.379	10736.57
263.448	10722.64
263.518	10711.85
263.588	10703.23
263.657	10714.65
263.727	10706.79
263.797	10689.44
263.867	10666.36
263.936	10633.12
264.006	10637.7
264.076	10618.9
264.145	10602.71
264.215	10573.71
264.285	10570.43
264.354	10537.58
264.424	10511.46
264.494	10475.85
264.563	10455.18
264.633	10461.16
264.702	10449.35
264.772	10410.95
264.842	10389.46
264.911	10381.61
264.981	10360.07
265.05	10344.61
265.12	10322.68
265.19	10308.32
265.259	10306.54
265.329	10303.89
265.398	10293.2
265.468	10310.49
265.537	10288.96
265.607	10280.43
265.676	10279.37
265.746	10269.06
265.815	10274.7
265.885	10255.81
265.955	10235.92
266.024	10224.02
266.094	10182.69
266.163	10184.61
266.232	10189.53
266.302	10169.34
266.371	10159.47
266.441	10144.53
266.51	10141.45
266.58	10124.59
266.649	10098.57
266.719	10093.27
266.788	10084.41
266.858	10092.7
266.927	10052.71
266.996	10039.71
267.066	10033.4
267.135	10013.79
267.205	10010.42
267.274	9997.17
267.343	10003.72
267.413	9985.9
267.482	9984.75
267.552	9991.39
267.621	9953.67
267.69	9921.79
267.76	9916.15
267.829	9913.36
267.898	9893.18
267.968	9872.46
268.037	9868.13
268.106	9870.25
268.176	9846.36
268.245	9835.95
268.314	9819.91
268.384	9813.55
268.453	9814.61
268.522	9800.79
268.592	9800.26
268.661	9775.88
268.73	9768.85
268.799	9742.27
268.869	9757.87
268.938	9730.13
269.007	9710.96
269.076	9707.64
269.146	9707.44
269.215	9705.52
269.284	9704.7
269.353	9693.96
269.422	9679.95
269.492	9663.72
269.561	9620.23
269.63	9615.22
269.699	9592.2
269.768	9578.33
269.838	9578.66
269.907	9570.14
269.976	9551.4
270.045	9521.21
270.114	9514.76
270.183	9498.77
270.253	9497.18
270.322	9466.02
270.391	9455.43
270.46	9463.42
270.529	9455.09
270.598	9457.12
270.667	9442.96
270.736	9420.85
270.806	9418.25
270.875	9419.55
270.944	9403.95
271.013	9433.28
271.082	9421.77
271.151	9416.81
271.22	9388.3
271.289	9375.59
271.358	9362.15
271.427	9352.81
271.496	9341.79
271.565	9326.19
271.634	9324.74
271.703	9327.44
271.772	9324.45
271.841	9315.31
271.91	9291.23
271.979	9286.99
272.048	9260.17
272.117	9261.13
272.186	9251.12
272.255	9246.4
272.324	9245.87
272.393	9241.25
272.462	9220.59
272.531	9213.22
272.6	9204.36
272.669	9213.17
272.738	9203.93
272.807	9202.14
272.876	9181.4
272.945	9212.69
273.013	9212.84
273.082	9216.54
273.151	9193.58
273.22	9196.61
273.289	9186.79
273.358	9194.83
273.427	9183.42
273.496	9181.06
273.564	9172.25
273.633	9171.58
273.702	9152.66
273.771	9141.77
273.84	9132.96
273.909	9127.43
273.977	9126.32
274.046	9114.19
274.115	9123.58
274.184	9101.14
274.253	9091.03
274.322	9100.27
274.39	9063.73
274.459	9049.1
274.528	9017.71
274.597	9009.81
274.665	9008.75
274.734	9016.65
274.803	9004.95
274.872	8996.57
274.94	8988.15
275.009	9050.52
275.078	9034.83
275.147	9029.82
275.215	9022.17
275.284	9039.4
275.353	9025.87
275.421	8996.94
275.49	9012.93
275.559	9002.38
275.627	8998
275.696	8986.69
275.765	8985.34
275.833	8979.04
275.902	8978.8
275.971	8992.03
276.039	9006.38
276.108	9004.02
276.177	9005.32
276.245	8995.26
276.314	8986.16
276.383	8988.14
276.451	8920.42
276.52	8921.14
276.588	8938.47
276.657	8941.17
276.725	8922.25
276.794	8926.87
276.863	8940.78
276.931	8912.76
277	8916.8
277.068	8926.38
277.137	8944.34
277.205	8942.12
277.274	8962.25
277.342	8976.74
277.411	8954.84
277.48	8944.63
277.548	8933.17
277.617	8930.96
277.685	8919.12
277.754	8925.62
277.822	8919.84
277.89	8937.65
277.959	8934.33
278.027	8910.22
278.096	8902.37
278.164	8932.56
278.233	8922.83
278.301	8915.81
278.37	8920.57
278.438	8903.29
278.507	8909.21
278.575	8880.95
278.643	8879.94
278.712	8858.57
278.78	8843.6
278.849	8860.2
278.917	8867.52
278.985	8860.01
279.054	8862.61
279.122	8881
279.191	8883.74
279.259	8876.38
279.327	8846.82
279.396	8862.61
279.464	8863.14
279.532	8869.2
279.601	8860.49
279.669	8855.19
279.737	8869.39
279.806	8877.96
279.874	8887.35
279.942	8880.66
280.011	8878.92
280.079	8881.62
280.147	8899.86
280.215	8895.29
280.284	8887.39
280.352	8872.28
280.42	8879.79
280.488	8867.75
280.557	8854.56
280.625	8856.44
280.693	8855.91
280.761	8857.89
280.83	8838.2
280.898	8854.23
280.966	8836.32
281.034	8802.62
281.102	8787.85
281.171	8773.84
281.239	8785.73
281.307	8779.09
281.375	8769.85
281.443	8799.41
281.512	8798.59
281.58	8805.38
281.648	8795.32
281.716	8794.88
281.784	8796.14
281.852	8790.7
281.92	8788.24
281.989	8801.82
282.057	8779.43
282.125	8828.45
282.193	8833.07
282.261	8834.41
282.329	8824.6
282.397	8825.61
282.465	8831.43
282.533	8853.62
282.601	8844.95
282.67	8818.33
282.738	8807.84
282.806	8818.91
282.874	8794.98
282.942	8799.56
283.01	8796.33
283.078	8806.58
283.146	8800.13
283.214	8805.38
283.282	8807.4
283.35	8822.04
283.418	8815.25
283.486	8821.84
283.554	8780.48
283.622	8776.15
283.69	8774.03
283.758	8769.32
283.826	8782.31
283.894	8798.82
283.962	8818.32
284.03	8835.41
284.098	8838.63
284.165	8828.33
284.233	8828.24
284.301	8825.54
284.369	8812.35
284.437	8798.63
284.505	8787.85
284.573	8807.15
284.641	8799.69
284.709	8806.19
284.777	8783.42
284.845	8784.77
284.912	8788.09
284.98	8789.06
285.048	8778.27
285.116	8778.23
285.184	8792.57
285.252	8785.25
285.319	8765.52
285.387	8751.51
285.455	8731.97
285.523	8736.2
285.591	8739.23
285.659	8738.85
285.726	8750.69
285.794	8736.06
285.862	8733.99
285.93	8740.29
285.997	8735.58
286.065	8724.89
286.133	8713.44
286.201	8716.13
286.269	8708.72
286.336	8701.12
286.404	8696.78
286.472	8710.12
286.539	8691.35
286.607	8670.94
286.675	8671.81
286.743	8678.5
286.81	8673.78
286.878	8690.77
286.946	8686.2
287.013	8691.73
287.081	8690.38
287.149	8672.77
287.216	8693.7
287.284	8688.46
287.352	8680.85
287.419	8670.41
287.487	8690.86
287.555	8697.6
287.622	8691.2
287.69	8694.81
287.758	8703.62
287.825	8698.04
287.893	8684.66
287.96	8694.66
288.028	8707.08
288.096	8713.92
288.163	8716.85
288.231	8698.56
288.298	8698.08
288.366	8715.75
288.433	8706.36
288.501	8697.03
288.569	8702.37
288.636	8696.93
288.704	8716.18
288.771	8729.18
288.839	8721.43
288.906	8714.64
288.974	8718.78
289.041	8721.58
289.109	8710.36
289.176	8719.46
289.244	8723.16
289.311	8739.34
289.379	8750.65
289.446	8749.73
289.514	8744.82
289.581	8748.67
289.649	8753.97
289.716	8746.17
289.783	8729.13
289.851	8753.53
289.918	8753.05
289.986	8763.83
290.053	8769.94
290.121	8761.08
290.188	8764.89
290.255	8796.56
290.323	8791.55
290.39	8779.76
290.458	8788.09
290.525	8802
290.592	8795.59
290.66	8800.74
290.727	8787.94
290.794	8801.56
290.862	8804.21
290.929	8804.45
290.996	8799.73
291.064	8813.93
291.131	8829.63
291.198	8842.67
291.266	8838.05
291.333	8846.52
291.4	8850.66
291.468	8868.57
291.535	8866.88
291.602	8861.83
291.669	8854.27
291.737	8858.31
291.804	8867.6
291.871	8883.44
291.938	8889.8
292.006	8920.99
292.073	8932.26
292.14	8945.01
292.207	8933.6
292.275	8939.04
292.342	8949.88
292.409	8977.9
292.476	9000.76
292.543	8990.7
292.611	8991.86
292.678	9015.06
292.745	9041.88
292.812	9050.54
292.879	9042.12
292.946	9052.03
293.014	9074.28
293.081	9084.77
293.148	9101.43
293.215	9117.75
293.282	9108.99
293.349	9120.35
293.416	9109.56
293.484	9124.58
293.551	9134.65
293.618	9157.03
293.685	9177.5
293.752	9174.75
293.819	9170.18
293.886	9151.4
293.953	9163.39
294.02	9174.36
294.087	9171.86
294.154	9161.94
294.221	9185.34
294.288	9190.88
294.356	9209.37
294.423	9213.56
294.49	9207.2
294.557	9218.37
294.624	9207.64
294.691	9230.17
294.758	9232.24
294.825	9227.91
294.892	9215.53
294.959	9219.58
295.026	9230.7
295.093	9229.45
295.16	9225.98
295.226	9232.44
295.293	9262.58
295.36	9263.11
295.427	9274.52
295.494	9297.06
295.561	9303.84
295.628	9325.28
295.695	9337.7
295.762	9340.69
295.829	9351.76
295.896	9360.29
295.963	9368.38
296.03	9378.68
296.096	9382.43
296.163	9392.45
296.23	9413.2
296.297	9429.86
296.364	9430.63
296.431	9428.76
296.498	9425.1
296.564	9452.93
296.631	9451.34
296.698	9439.78
296.765	9469.54
296.832	9455.48
296.899	9432.22
296.965	9456.11
297.032	9423.16
297.099	9448.93
297.166	9449.65
297.233	9438.24
297.299	9433.23
297.366	9431.83
297.433	9440.36
297.5	9453.17
297.566	9448.01
297.633	9444.5
297.7	9446.71
297.767	9441.9
297.833	9453.6
297.9	9455.29
297.967	9442.38
298.033	9455.14
298.1	9483.7
298.167	9466.66
298.234	9482.45
298.3	9498.39
298.367	9486.4
298.434	9503.73
298.5	9483.99
298.567	9487.07
298.634	9493.28
298.7	9516.3
298.767	9522.8
298.834	9537.92
298.9	9529.88
298.967	9528.15
299.033	9539.27
299.1	9555.02
299.167	9574.81
299.233	9566.91
299.3	9574.9
299.366	9595.66
299.433	9614.16
299.5	9588.63
299.566	9598.94
299.633	9613.14
299.699	9625.76
299.766	9620.51
299.832	9627.35
299.899	9642.04
299.965	9648.59
300.032	9640.74
300.099	9645.56
300.165	9650.23
300.232	9639.59
300.298	9640.74
300.365	9650.86
300.431	9655.09
300.498	9642.28
300.564	9647.44
300.631	9656.49
300.697	9677.78
300.763	9670.75
300.83	9664.49
300.896	9682.26
300.963	9688.71
301.029	9691.17
301.096	9688.95
301.162	9705.66
301.229	9697.09
301.295	9680.71
301.361	9684.66
301.428	9694.87
301.494	9681
301.561	9682.11
301.627	9684.08
301.693	9688.37
301.76	9699.11
301.826	9685.58
301.892	9702.96
301.959	9714.33
302.025	9712.12
302.092	9705.61
302.158	9721.22
302.224	9719.1
302.291	9705.85
302.357	9703.78
302.423	9695.88
302.49	9692.08
302.556	9706.53
302.622	9705.95
302.688	9719.29
302.755	9734.42
302.821	9739.33
302.887	9749.97
302.954	9751.13
303.02	9767.65
303.086	9772.56
303.152	9764.95
303.219	9765.48
303.285	9770.78
303.351	9774.73
303.417	9780.89
303.483	9772.13
303.55	9763.89
303.616	9768.28
303.682	9769.43
303.748	9765.19
303.815	9786.72
303.881	9796.74
303.947	9787.11
304.013	9796.26
304.079	9786.24
304.145	9767.46
304.212	9764.76
304.278	9754.5
304.344	9749.64
304.41	9735.67
304.476	9730.9
304.542	9728.98
304.608	9737.36
304.674	9718.76
304.741	9717.27
304.807	9719
304.873	9719.92
304.939	9731.38
305.005	9712.36
305.071	9708.02
305.137	9705.28
305.203	9671.71
305.269	9675.08
305.335	9679.94
305.401	9672.72
305.467	9675.99
305.533	9678.79
305.599	9694.2
305.666	9703.88
305.732	9703.64
305.798	9714.33
305.864	9734.56
305.93	9731.24
305.996	9731.87
306.062	9732.54
306.128	9722.47
306.194	9703.98
306.259	9703.69
306.325	9692.47
306.391	9697.38
306.457	9712.21
306.523	9718.91
306.589	9749.11
306.655	9728.78
306.721	9714.81
306.787	9699.16
306.853	9714.67
306.919	9697.82
306.985	9689.39
307.051	9686.69
307.117	9680.72
307.183	9677.44
307.248	9650.18
307.314	9662.12
307.38	9667.81
307.446	9678.26
307.512	9671.18
307.578	9679.22
307.644	9676.72
307.709	9683.46
307.775	9682.79
307.841	9676.86
307.907	9680.04
307.973	9657.4
308.039	9672.09
308.104	9674.69
308.17	9679.8
308.236	9665.15
308.302	9672.33
308.368	9656.49
308.433	9652.87
308.499	9652.58
308.565	9636.21
308.631	9638.28
308.696	9618.34
308.762	9599.99
308.828	9596.62
308.894	9573.89
308.959	9559.45
309.025	9553.86
309.091	9543.07
309.156	9538.79
309.222	9538.69
309.288	9523.81
309.354	9499.44
309.419	9486.58
309.485	9471.99
309.551	9475.17
309.616	9455.09
309.682	9451.38
309.748	9449.89
309.813	9441.75
309.879	9429.81
309.945	9421.38
310.01	9417.87
310.076	9418.64
310.141	9416.04
310.207	9396.87
310.273	9403.71
310.338	9403.13
310.404	9386.37
310.469	9374.48
310.535	9362.44
310.601	9340.14
310.666	9344.28
310.732	9356.51
310.797	9343.27
310.863	9328.73
310.928	9322.18
310.994	9334.75
311.059	9333.59
311.125	9325.5
311.191	9341.64
311.256	9328.4
311.322	9338.6
311.387	9315.4
311.453	9788.33
311.518	9755.5
311.584	9757.18
311.649	9765.08
311.715	9753.72
311.78	9757.95
311.846	9743.75
311.911	9746.3
311.976	9750.73
312.042	9730.27
312.107	9716.16
312.173	9710.67
312.238	9709.13
312.304	9701.14
312.369	9687.46
312.434	9671.48
312.5	9666.66
312.565	9632.52
312.631	9639.65
312.696	9623.37
312.761	9625.44
312.827	9146.63
312.892	9202.34
312.958	9192.23
313.023	9184.43
313.088	9183.28
313.154	9165.99
313.219	9161.85
313.284	9153.43
313.35	9144.86
313.415	9134.27
313.48	9133.64
313.546	9144.14
313.611	9155.07
313.676	9154.97
313.741	9143.75
313.807	9155.16
313.872	9158.34
313.937	9166.72
314.003	9181.21
314.068	9180.15
314.133	9190.26
314.198	9175.48
314.264	9142.01
314.329	9136.96
314.394	9135.51
314.459	9130.41
314.525	9153.28
314.59	9144.28
314.655	9131.95
314.72	9143.36
314.785	9151.79
314.851	9144.52
314.916	9118.91
314.981	9101
315.046	9084.87
315.111	9075
315.176	9058.77
315.242	9062.87
315.307	9058.73
315.372	9033.54
315.437	9027.91
315.502	9009.18
315.567	9025.17
315.632	9010.05
315.698	9012.56
315.763	9004.61
315.828	8998.31
315.893	8991.28
315.958	8994.36
316.023	8992.62
316.088	8970.72
316.153	8951.94
316.218	8944.53
316.283	8931.39
316.348	8909.3
316.413	8912.57
316.479	8897.08
316.544	8871.04
316.609	8837.15
316.674	8800.96
316.739	8768.86
316.804	8738.3
316.869	8711.88
316.934	8671.01
316.999	8643.24
317.064	8589.82
317.129	8543.81
317.194	8506.52
317.259	8461.91
317.324	8412.93
317.389	8365.29
317.454	8325.5
317.518	8286.43
317.583	8258.81
317.648	8240.43
317.713	8208.59
317.778	8139.93
317.843	8114.67
317.908	8071.77
317.973	8037.81
318.038	8016.02
318.103	7976.2
318.168	7941.32
318.233	7907.56
318.297	7856.48
318.362	7820.32
318.427	7782.81
318.492	7757.95
318.557	7712.18
318.622	7676.93
318.687	7653.23
318.751	7608.19
318.816	7577.89
318.881	7549.34
318.946	7500.82
319.011	7450.87
319.075	7411.12
319.14	7383.34
319.205	7338.15
319.27	7307.15
319.335	7260.1
319.399	7216.64
319.464	7193.05
319.529	7142.65
319.594	7106.55
319.658	7075.8
319.723	7034.63
319.788	7004.84
319.853	6953.38
319.917	6929.46
319.982	6883.39
320.047	6847.69
320.112	6828.67
320.176	6775.98
320.241	6743.31
320.306	6707.24
320.37	6661.67
320.435	6629.98
320.5	6603.08
320.564	6560.93
320.629	6517.62
320.694	6489.49
320.758	6448.92
320.823	6405.42
320.888	6380.75
320.952	6331.31
321.017	6294.73
321.082	6258.26
321.146	6226.15
321.211	6196.63
321.275	6154.36
321.34	6107.77
321.405	6065.93
321.469	6016.85
321.534	5974.55
321.598	5915.88
321.663	5888.05
321.727	5859.7
321.792	5813.18
321.857	5767.18
321.921	5733.89
321.986	5693.15
322.05	5633.74
322.115	5594.9
322.179	5546.63
322.244	5491.03
322.308	5455.18
322.373	5409.5
322.437	5365.69
322.502	5341.38
322.566	5296.71
322.631	5259
322.695	5221.25
322.76	5172.01
322.824	5138.57
322.889	5102.55
322.953	5064.96
323.018	4999.2
323.082	4933.79
323.146	4884.48
323.211	4829.56
323.275	4784.17
323.34	4738.99
323.404	4703
323.468	4660.68
323.533	4619.87
323.597	4575.95
323.662	4531.26
323.726	4492.79
323.79	4444.85
323.855	4374.64
323.919	4322.4
323.983	4277.2
324.048	4210.05
324.112	4371.49
324.177	4244.15
324.241	4022.56
324.305	3807.42
324.37	3597.16
324.434	3396.28
324.498	3352.76
324.562	3303.39
324.627	3240.17
324.691	3184.86
324.755	3119.26
324.82	3036.01
324.884	2956.92
324.948	2881.58
325.012	2779.13
325.077	2651.66
