Data from 20250703_urea_0.1M_MAYP1162681_10-11-05-085.txt Node
Date: Fri Jul 04 10:11:05 BST 2025
User: adleo
Spectrometer: MAYP116268
Trigger mode: 0
Integration Time (sec): 1.000000E0
Scans to average: 1
Electric dark correction enabled: true
Nonlinearity correction enabled: true
Boxcar width: 10
XAxis mode: Wavelengths
Number of Pixels in Spectrum: 2068
>>>>>Begin Spectral Data<<<<<
179.565	1228.66
179.642	1282.99
179.718	1321.98
179.795	1361.25
179.871	1394.55
179.948	1411.65
180.024	1433.07
180.101	1456.66
180.177	1470.63
180.254	1492.73
180.33	1514.2
180.407	1568.47
180.483	1665.43
180.56	1756.75
180.636	1842.02
180.712	1828.04
180.789	1838.35
180.865	1850.76
180.942	1856.98
181.018	1868.01
181.095	1878.33
181.171	1881.7
181.248	1884.13
181.324	1902.15
181.4	1909.57
181.477	1918.98
181.553	1933.33
181.63	1953.88
181.706	1970.28
181.782	1978.98
181.859	1979.36
181.935	1985.92
182.011	1982.45
182.088	1999.57
182.164	2017.08
182.24	2029.96
182.317	2039.57
182.393	2036.38
182.469	2049.93
182.546	2066.63
182.622	2069.48
182.698	2065.53
182.775	2079.42
182.851	2094.02
182.927	2089.32
183.003	2084.47
183.08	2078.52
183.156	2086.27
183.232	2080.95
183.308	2067.87
183.385	2074.76
183.461	2095.07
183.537	2094.74
183.613	2109.68
183.69	2099.97
183.766	2092.69
183.842	2099.45
183.918	2104.54
183.995	2121.42
184.071	2125.66
184.147	2119.38
184.223	2109.11
184.299	2121.24
184.375	2109.87
184.452	2114.77
184.528	2162.2
184.604	2172.62
184.68	2185.32
184.756	2194.79
184.832	2201.5
184.908	2206.49
184.985	2205.39
185.061	2183.61
185.137	2193.03
185.213	2179.19
185.289	2178.85
185.365	2169.01
185.441	2167.06
185.517	2181.86
185.593	2175.24
185.669	2172.29
185.745	2180.1
185.822	2197.22
185.898	2190.7
185.974	2197.55
186.05	2188.65
186.126	2156.87
186.202	2153.3
186.278	2150.26
186.354	2139.41
186.43	2146.59
186.506	2146.4
186.582	2147.97
186.658	2159.2
186.734	2139.84
186.81	2143.26
186.886	2148.73
186.962	2163
187.038	2162.53
187.114	2154.63
187.19	2163.48
187.266	2151.58
187.341	2155.3
187.417	2146.73
187.493	2145.26
187.569	2147.12
187.645	2142.31
187.721	2126.85
187.797	2130.13
187.873	2134.7
187.949	2129.75
188.025	2123.13
188.101	2126.37
188.176	2131.36
188.252	2125.61
188.328	2132.74
188.404	2133.6
188.48	2129.08
188.556	2120.8
188.632	2119.66
188.707	2120.85
188.783	2115.9
188.859	2111.53
188.935	2098.16
189.011	2107.57
189.086	2102.15
189.162	2095.21
189.238	2093.73
189.314	2090.5
189.39	2086.55
189.465	2079.18
189.541	2094.93
189.617	2078.52
189.693	2071.34
189.768	2071.43
189.844	2094.18
189.92	2088.18
189.996	2099.51
190.071	2109.12
190.147	2109.69
190.223	2115.25
190.298	2103.88
190.374	2091.61
190.45	2103.93
190.526	2113.06
190.601	2107.45
190.677	2110.44
190.753	2137.91
190.828	2142.28
190.904	2158.88
190.98	2174.4
191.055	2184.86
191.131	2172.11
191.207	2195.61
191.282	2207.41
191.358	2200.65
191.433	2187.18
191.509	2197.84
191.585	2190.51
191.66	2190.22
191.736	2196.79
191.811	2192.41
191.887	2211.35
191.963	2238.47
192.038	2247.75
192.114	2247.47
192.189	2252.37
192.265	2247.23
192.34	2225.52
192.416	2222.1
192.491	2217.67
192.567	2218.53
192.642	2220.62
192.718	2226.43
192.793	2212.06
192.869	2207.11
192.944	2210.39
193.02	2215.53
193.095	2222.67
193.171	2228.47
193.246	2228.04
193.322	2226.28
193.397	2225.05
193.473	2210.29
193.548	2188.59
193.624	2190.64
193.699	2189.16
193.775	2204.97
193.85	2206.11
193.925	2218.34
194.001	2218.34
194.076	2213.86
194.152	2204.63
194.227	2194.54
194.302	2181.56
194.378	2187.03
194.453	2181.75
194.529	2193.65
194.604	2182.37
194.679	2178.71
194.755	2160.11
194.83	2175.01
194.905	2172.11
194.981	2179.01
195.056	2174.92
195.131	2180.82
195.207	2181.48
195.282	2172.49
195.357	2150.69
195.433	2168.53
195.508	2153.88
195.583	2160.01
195.659	2172.1
195.734	2180.1
195.809	2180.67
195.884	2192.22
195.96	2189.08
196.035	2206.35
196.11	2203.69
196.185	2216.2
196.261	2217.68
196.336	2246.98
196.411	2232.13
196.486	2238.51
196.561	2234.94
196.637	2238.79
196.712	2257.36
196.787	2259.07
196.862	2273.15
196.937	2283.24
197.013	2285.62
197.088	2297.66
197.163	2322.27
197.238	2338.18
197.313	2335.42
197.388	2350.93
197.464	2382.5
197.539	2396.87
197.614	2388.97
197.689	2400.4
197.764	2417.92
197.839	2436.2
197.914	2433.49
197.989	2455.87
198.065	2469.05
198.14	2518.94
198.215	2547.88
198.29	2557.94
198.365	2572.46
198.44	2586.7
198.515	2617.71
198.59	2634.33
198.665	2662.15
198.74	2670.72
198.815	2671.3
198.89	2700.78
198.965	2731.28
199.04	2725.04
199.115	2740.8
199.19	2786.63
199.265	2790.44
199.34	2799.54
199.415	2833.29
199.49	2852.78
199.565	2862.59
199.64	2885.23
199.715	2884.42
199.79	2891.19
199.865	2898.29
199.94	2896.72
200.015	2927.85
200.09	2932.42
200.165	2937.09
200.24	2941.72
200.315	2981.84
200.39	2998.53
200.464	3000.96
200.539	3002.44
200.614	3019.69
200.689	3041.86
200.764	3047.35
200.839	3063.03
200.914	3067.17
200.989	3057.73
201.063	3075.9
201.138	3060.22
201.213	3062.75
201.288	3041.39
201.363	3047.06
201.438	3049.45
201.512	3065.89
201.587	3048.96
201.662	3050.34
201.737	3066.17
201.812	3073.23
201.886	3041.02
201.961	3052.28
202.036	3039.98
202.111	3035.59
202.186	3007.1
202.26	2989.17
202.335	2965.9
202.41	2962.42
202.485	2949.22
202.559	2929.44
202.634	2900.12
202.709	2908.17
202.784	2892.06
202.858	2894.68
202.933	2877.28
203.008	2871.18
203.082	2856.45
203.157	2856.36
203.232	2820.82
203.306	2806.66
203.381	2780.96
203.456	2759.95
203.53	2742.73
203.605	2729.2
203.68	2714.04
203.754	2714.57
203.829	2710.85
203.904	2701.51
203.978	2702.23
204.053	2714.28
204.127	2713.95
204.202	2726.44
204.277	2723.24
204.351	2725.1
204.426	2730.92
204.5	2742.45
204.575	2723.82
204.65	2747.37
204.724	2761.73
204.799	2786.26
204.873	2798.37
204.948	2816.71
205.022	2827.77
205.097	2842.27
205.171	2878.87
205.246	2916.59
205.32	2944.9
205.395	2972.51
205.469	2994.86
205.544	3028.68
205.618	3041.89
205.693	3085.87
205.767	3106.81
205.842	3166.5
205.916	3203.56
205.991	3234.09
206.065	3281.34
206.14	3340.67
206.214	3384.17
206.289	3421.75
206.363	3479.98
206.438	3532.95
206.512	3591.88
206.586	3667.61
206.661	3729.97
206.735	3770.27
206.81	3825.77
206.884	3901.69
206.958	3951.52
207.033	4030.07
207.107	4101.95
207.181	4202.37
207.256	4267.27
207.33	4359.47
207.405	4442.19
207.479	4529.97
207.553	4618.2
207.628	4673.79
207.702	4757.1
207.776	4828.01
207.851	4907.09
207.925	5003.56
207.999	5079.38
208.073	5161.05
208.148	5240.97
208.222	5311.99
208.296	5423.28
208.371	5519.76
208.445	5614.83
208.519	5724.56
208.593	5824.78
208.668	5903.84
208.742	5986.62
208.816	6068.73
208.89	6166.59
208.965	6250.71
209.039	6345.95
209.113	6448.89
209.187	6553.97
209.261	6637.25
209.336	6746.08
209.41	6854.34
209.484	6944.85
209.558	7061.51
209.632	7160.53
209.707	7265.09
209.781	7374.23
209.855	7480.85
209.929	7592.23
210.003	7682.95
210.077	7772.86
210.151	7909.97
210.226	8034.45
210.3	8152.7
210.374	8266.01
210.448	8357.46
210.522	8452.88
210.596	8552.82
210.67	8645.41
210.744	8780.69
210.818	8909.7
210.892	9013.68
210.966	9098.25
211.041	9197.85
211.115	9277.29
211.189	9382.87
211.263	9481.38
211.337	9569.59
211.411	9665.72
211.485	9741.34
211.559	9839.63
211.633	9922.22
211.707	9975.5
211.781	10069.3
211.855	10123.16
211.929	10198.63
212.003	10262.41
212.077	10353.32
212.151	10451.13
212.225	10545.66
212.299	10620.88
212.373	10681.73
212.447	10754.88
212.52	10862.24
212.594	10940.3
212.668	11025.54
212.742	11096.67
212.816	11173.73
212.89	11241.2
212.964	11315.9
213.038	11397.11
213.112	11486.66
213.186	11587.72
213.26	11638.52
213.333	11671.63
213.407	11743.78
213.481	11824.6
213.555	11905.76
213.629	11971.32
213.703	12016.96
213.777	12082.08
213.85	12127.73
213.924	12236.33
213.998	12305.31
214.072	12372.32
214.146	12438.26
214.219	12508.4
214.293	12568.84
214.367	12634.16
214.441	12721.7
214.515	12773.52
214.588	12809
214.662	12843.03
214.736	12877.88
214.81	12935.97
214.883	13002.54
214.957	13054.94
215.031	13105.65
215.105	13154.73
215.178	13198.45
215.252	13257.16
215.326	13293.51
215.4	13334.73
215.473	13349.67
215.547	13388.77
215.621	13423.28
215.694	13480.46
215.768	13508.66
215.842	13551.13
215.915	13590.51
215.989	13619.34
216.063	13667.45
216.136	13728.19
216.21	13778.52
216.284	13846.05
216.357	13914.65
216.431	13960.06
216.504	14025.19
216.578	14088
216.652	14142.28
216.725	14184.85
216.799	14248.28
216.873	14298.23
216.946	14356.65
217.02	14400.52
217.093	14451.09
217.167	14483.33
217.24	14515.68
217.314	14567.5
217.387	14611.75
217.461	14655.38
217.535	14715.2
217.608	14752.03
217.682	14796.71
217.755	14844.82
217.829	14884.44
217.902	14932.02
217.976	14981.43
218.049	15021.2
218.123	15060.91
218.196	15116.49
218.27	15166.43
218.343	15189.66
218.417	15238.2
218.49	15289.35
218.563	15352.3
218.637	15400.74
218.71	15470.97
218.784	15531.32
218.857	15579.76
218.931	15628.35
219.004	15677.17
219.077	15730.1
219.151	15786.68
219.224	15836.33
219.298	15887.42
219.371	15945.93
219.444	15984.16
219.518	16037.95
219.591	16089.33
219.665	16164.51
219.738	16212.37
219.811	16253.92
219.885	16320.44
219.958	16376.54
220.031	16415.43
220.105	16462.33
220.178	16509.61
220.251	16555.78
220.325	16608.84
220.398	16665.81
220.471	16721.77
220.544	16778.35
220.618	16814.79
220.691	16860.38
220.764	16910.16
220.838	16963.9
220.911	17001.3
220.984	17068.72
221.057	17117.4
221.131	17166.08
221.204	17176.1
221.277	17241.69
221.35	17314.41
221.424	17345.5
221.497	17383.09
221.57	17427.09
221.643	17472.3
221.716	17528.34
221.79	17557.45
221.863	17596.82
221.936	17640.63
222.009	17682.08
222.082	17727.57
222.155	17766.17
222.229	17826.6
222.302	17869.98
222.375	17899.52
222.448	17947.56
222.521	17984
222.594	18018.65
222.667	18051.8
222.74	18103.17
222.814	18129.92
222.887	18166.21
222.96	18219.6
223.033	18269.91
223.106	18317.86
223.179	18361.33
223.252	18392.41
223.325	18429.18
223.398	18457.23
223.471	18489.61
223.544	18524.84
223.617	18556.4
223.69	18591.49
223.763	18600.59
223.837	18638.23
223.91	18686.66
223.983	18697.94
224.056	18707.24
224.129	18745.6
224.202	18777.21
224.275	18796.82
224.348	18804.63
224.42	18817.35
224.493	18823.28
224.566	18827.71
224.639	18847.86
224.712	18857.3
224.785	18877.25
224.858	18898.17
224.931	18914.02
225.004	18932.53
225.077	18960.19
225.15	18949.87
225.223	18974.35
225.296	19022.64
225.369	19018.54
225.442	19022.06
225.514	19049.29
225.587	19079.89
225.66	19090.54
225.733	19110.15
225.806	19141.14
225.879	19171.16
225.952	19173.38
226.025	19200.94
226.097	19254.67
226.17	19269.76
226.243	19266.24
226.316	19284.89
226.389	19303.68
226.461	19322.82
226.534	19340.02
226.607	19348.93
226.68	19404.26
226.753	19424.21
226.825	19423.19
226.898	19461.51
226.971	19482.76
227.044	19504.3
227.117	19519.67
227.189	19549.31
227.262	19573.07
227.335	19587.91
227.407	19596.97
227.48	19625.59
227.553	19649.06
227.626	19643.86
227.698	19661.25
227.771	19696.91
227.844	19703.13
227.916	19725.92
227.989	19729.54
228.062	19731.61
228.134	19763.08
228.207	19757.34
228.28	19752.53
228.352	19762.69
228.425	19764.43
228.498	19788.62
228.57	19779.08
228.643	19801.92
228.716	19800.67
228.788	19804.57
228.861	19809.82
228.934	19830.88
229.006	19839.32
229.079	19840.86
229.151	19851.41
229.224	19841.58
229.296	19844.38
229.369	19878.11
229.442	19891.61
229.514	19885.58
229.587	19902.21
229.659	19887.8
229.732	19899.03
229.804	19918.59
229.877	19937
229.949	19957.15
230.022	19968.71
230.094	19979.46
230.167	19987.26
230.239	19980.81
230.312	19982.49
230.384	20003.51
230.457	20015.55
230.529	20021.63
230.602	20021.77
230.674	20020.32
230.747	20043.5
230.819	20053.43
230.892	20019.41
230.964	20018.2
231.037	20032.9
231.109	20036.76
231.181	20040.23
231.254	20028.52
231.326	20019.99
231.399	20023.07
231.471	20012.03
231.544	19989.05
231.616	20002.35
231.688	19992.13
231.761	19983.7
231.833	19974.93
231.905	19951.17
231.978	19944.47
232.05	19936.61
232.122	19936.47
232.195	19930.35
232.267	19934.4
232.339	19932.08
232.412	19944.47
232.484	19932.52
232.556	19928.33
232.629	19948.33
232.701	19953.43
232.773	19956.42
232.846	19958.64
232.918	19956.08
232.99	19951.26
233.062	19949.72
233.135	19936.61
233.207	19914.35
233.279	19917.1
233.351	19916.9
233.424	19905.63
233.496	19876.47
233.568	19882.06
233.64	19861.58
233.713	19845.34
233.785	19837.1
233.857	19826.79
233.929	19800.48
234.001	19801.63
234.074	19802.64
234.146	19764.86
234.218	19747.66
234.29	19727.42
234.362	19692.53
234.434	19646.99
234.507	19613.45
234.579	19580.34
234.651	19561.84
234.723	19555.19
234.795	19546.42
234.867	19522.61
234.939	19520.59
235.012	19509.55
235.084	19501.02
235.156	19491.14
235.228	19471.14
235.3	19438.66
235.372	19423.34
235.444	19420.35
235.516	19389.7
235.588	19365.17
235.66	19345.46
235.732	19326.62
235.804	19374.28
235.876	19371.25
235.948	19369.85
236.02	19355.78
236.092	19340.26
236.164	19322.53
236.236	19293.71
236.308	19263.11
236.38	19240.17
236.452	19201.81
236.524	19176.99
236.596	19164.37
236.668	19146.97
236.74	19118.3
236.812	19104.08
236.884	19074.88
236.956	19047.75
237.028	19011.51
237.1	18981.2
237.172	18972.14
237.244	18961.39
237.316	18888.48
237.388	18861.01
237.46	18825.4
237.532	18811.47
237.604	18781.98
237.675	18772.34
237.747	18757.98
237.819	18727.33
237.891	18712.39
237.963	18683.24
238.035	18663.82
238.107	18598.62
238.178	18584.5
238.25	18561.13
238.322	18558.19
238.394	18515.25
238.466	18494.43
238.538	18480.07
238.609	18457.71
238.681	18413.47
238.753	18374.49
238.825	18350.25
238.897	18322.15
238.968	18323.16
239.04	18287.41
239.112	18292.66
239.184	18250.59
239.255	18221.19
239.327	18202.78
239.399	18164.57
239.471	18145.39
239.542	18121
239.614	18114.98
239.686	18074.74
239.758	18063.46
239.829	18024.67
239.901	18022.55
239.973	17988.38
240.044	17958.31
240.116	17924.53
240.188	17900
240.259	17868.58
240.331	17834.75
240.403	17816.44
240.474	17765.35
240.546	17727.62
240.618	17668.1
240.689	17630.8
240.761	17603.57
240.833	17583.14
240.904	17557.16
240.976	17525.55
241.048	17499.28
241.119	17466.85
241.191	17437.65
241.262	17424.39
241.334	17374.42
241.405	17340.06
241.477	17300.92
241.549	17264.49
241.62	17239.67
241.692	17201.98
241.763	17182.7
241.835	17147.14
241.906	17109.11
241.978	17067.52
242.049	17052.15
242.121	17032.68
242.192	17017.25
242.264	16973.25
242.335	16925.15
242.407	16901.92
242.478	16864.81
242.55	16825.44
242.621	16790.69
242.693	16745.63
242.764	16695.31
242.836	16666.63
242.907	16634.97
242.979	16614.15
243.05	16590.53
243.122	16574.48
243.193	16552.03
243.264	16495.88
243.336	16468.69
243.407	16449.99
243.479	16430.91
243.55	16407.39
243.622	16386.61
243.693	16357.99
243.764	16342.27
243.836	16311.33
243.907	16271.76
243.978	16245.35
244.05	16224.33
244.121	16178.01
244.192	16162.73
244.264	16120.46
244.335	16090.68
244.407	16042.86
244.478	16001.85
244.549	15969.51
244.62	15918.08
244.692	15885.88
244.763	15866.65
244.834	15829.53
244.906	15789.77
244.977	15755.93
245.048	15733.76
245.119	15690.48
245.191	15644.74
245.262	15582.27
245.333	15561.45
245.405	15527.95
245.476	15499.41
245.547	15466.2
245.618	15442.29
245.689	15411.06
245.761	15384.98
245.832	15353.89
245.903	15330.51
245.974	15308.34
246.045	15274.21
246.117	15265.3
246.188	15223.12
246.259	15181.47
246.33	15145.8
246.401	15104.3
246.473	15056.63
246.544	15014.64
246.615	14995.41
246.686	14962.63
246.757	14962.92
246.828	14924.6
246.899	14911.82
246.97	14865.6
247.042	14830.89
247.113	14812.67
247.184	14802.26
247.255	14775.17
247.326	14745.71
247.397	14713.61
247.468	14683.82
247.539	14649.35
247.61	14602.69
247.681	14579.22
247.752	14562.78
247.823	14521.95
247.894	14496.93
247.965	14467.96
248.037	14435.18
248.108	14384.32
248.179	14353.81
248.25	14315.73
248.321	14295.82
248.392	14255.23
248.463	14251.9
248.534	14218.11
248.605	14198.39
248.675	14161.18
248.746	14135.44
248.817	14123.19
248.888	14106.18
248.959	14062.07
249.03	14047.03
249.101	14018.97
249.172	13993.18
249.243	13945.22
249.314	13942.47
249.385	13923.38
249.456	13897.3
249.527	13868.13
249.598	13849.14
249.669	13827.3
249.739	13801.03
249.81	13772.59
249.881	13741.98
249.952	13714.93
250.023	13695.94
250.094	13644.94
250.165	13607.82
250.235	13581.74
250.306	13540.57
250.377	13498.53
250.448	13482.72
250.519	13431.82
250.59	13421.6
250.66	13389.35
250.731	13380.09
250.802	13358.01
250.873	13334.49
250.944	13317.47
251.014	13288.11
251.085	13288.93
251.156	13270.71
251.227	13269.6
251.297	13261.31
251.368	13244.73
251.439	13234.02
251.51	13218.98
251.58	13193.63
251.651	13168.37
251.722	13148.6
251.792	13117.7
251.863	13093.94
251.934	13084.59
252.005	13094.76
252.075	13068.15
252.146	13051.52
252.217	13043.95
252.287	13020.37
252.358	12992.42
252.429	12988.9
252.499	12958.91
252.57	12938.23
252.641	12916.49
252.711	12879.42
252.782	12844.47
252.852	12847.22
252.923	12812.51
252.994	12788.84
253.064	12776.55
253.135	12738.47
253.205	12715.18
253.276	12708.97
253.347	12699.9
253.417	12666.83
253.488	12635.89
253.558	12613.33
253.629	12590.82
253.699	12572.84
253.77	12560.54
253.841	12536.68
253.911	12515.95
253.982	12496.58
254.052	12488.67
254.123	12469.92
254.193	12455.31
254.264	12472.38
254.334	12431.07
254.405	12403.69
254.475	12371.73
254.546	12348.78
254.616	12348.83
254.687	12328.3
254.757	12308.2
254.827	12291.04
254.898	12280.24
254.968	12265.54
255.039	12238.21
255.109	12231.51
255.18	12200.94
255.25	12153.37
255.321	12143.25
255.391	12115.92
255.461	12127.29
255.532	12071.13
255.602	12046.94
255.673	12007.99
255.743	11968.03
255.813	11928.12
255.884	11918.96
255.954	11911.49
256.024	11916.17
256.095	11895.58
256.165	11869.51
256.235	11855.53
256.306	11824.54
256.376	11815.86
256.446	11799.09
256.517	11784.29
256.587	11769.83
256.657	11757.64
256.728	11742.74
256.798	11727.22
256.868	11699.94
256.938	11666.69
257.009	11664.08
257.079	11654.97
257.149	11662.3
257.219	11626.29
257.29	11607.69
257.36	11569.42
257.43	11557.18
257.5	11511.44
257.571	11486.77
257.641	11473.66
257.711	11438.76
257.781	11425.75
257.852	11409.75
257.922	11375.39
257.992	11357.36
258.062	11337.55
258.132	11327.38
258.202	11311.29
258.273	11292.01
258.343	11297.26
258.413	11269.21
258.483	11250.22
258.553	11215.43
258.623	11185.88
258.693	11173.11
258.764	11177.35
258.834	11179.52
258.904	11163.38
258.974	11140.83
259.044	11119.77
259.114	11108.73
259.184	11100.97
259.254	11081.07
259.324	11043.77
259.394	11033.7
259.464	11031.24
259.535	11011.53
259.605	10978.23
259.675	10946.86
259.745	10927.87
259.815	10888.65
259.885	10866.72
259.955	10869.04
260.025	10850.92
260.095	10838.05
260.165	10825.19
260.235	10821.86
260.305	10792.18
260.375	10759.02
260.445	10766.73
260.515	10769.48
260.585	10755.51
260.655	10741.92
260.725	10739.65
260.795	10729.68
260.865	10733
260.934	10712.72
261.004	10702.26
261.074	10690.7
261.144	10695.51
261.214	10693.78
261.284	10681.69
261.354	10674.02
261.424	10649.25
261.494	10655.18
261.564	10632.73
261.634	10625.45
261.703	10590.52
261.773	10580.16
261.843	10573.8
261.913	10550.53
261.983	10521.23
262.053	10521.91
262.123	10497.96
262.192	10466.74
262.262	10464.62
262.332	10433.35
262.402	10418.99
262.472	10405.36
262.541	10369.57
262.611	10370.05
262.681	10341.67
262.751	10335.26
262.821	10315.85
262.89	10283.66
262.96	10271.62
263.03	10277.16
263.1	10262.22
263.169	10249.7
263.239	10244.5
263.309	10240.83
263.379	10237.46
263.448	10215.59
263.518	10194.68
263.588	10180.81
263.657	10190.44
263.727	10182.93
263.797	10168.76
263.867	10149.78
263.936	10120.11
264.006	10121.79
264.076	10106.18
264.145	10085.81
264.215	10064.42
264.285	10064.42
264.354	10040.96
264.424	10021.5
264.494	10000.4
264.563	9979.4
264.633	9984.89
264.702	9972.56
264.772	9946.4
264.842	9924.92
264.911	9923.37
264.981	9901.99
265.05	9894.23
265.12	9876.02
265.19	9864.03
265.259	9858.05
265.329	9852.9
265.398	9845.05
265.468	9860.37
265.537	9833.64
265.607	9832
265.676	9831.08
265.746	9821.74
265.815	9817.89
265.885	9801.08
265.955	9771.84
266.024	9758.21
266.094	9719.2
266.163	9720.55
266.232	9722.09
266.302	9703.74
266.371	9694.78
266.441	9683.8
266.51	9679.47
266.58	9662.42
266.649	9637.85
266.719	9637.42
266.788	9629.28
266.858	9633.13
266.927	9593.06
266.996	9580.16
267.066	9576.21
267.135	9551.98
267.205	9544.61
267.274	9537.78
267.343	9535.22
267.413	9523.86
267.482	9521.45
267.552	9527.47
267.621	9497.52
267.69	9466.36
267.76	9463.57
267.829	9452.35
267.898	9436.74
267.968	9416.9
268.037	9412.04
268.106	9407.47
268.176	9379.78
268.245	9360.95
268.314	9342.07
268.384	9339.04
268.453	9335.38
268.522	9324.59
268.592	9320.88
268.661	9301.72
268.73	9294.49
268.799	9277.98
268.869	9281.06
268.938	9253.04
269.007	9233.63
269.076	9231.75
269.146	9231.08
269.215	9219.33
269.284	9225.88
269.353	9209.27
269.422	9194.97
269.492	9174.75
269.561	9137.34
269.63	9137.63
269.699	9124.68
269.768	9118.09
269.838	9110.14
269.907	9103.83
269.976	9079.62
270.045	9055.93
270.114	9054.63
270.183	9043.65
270.253	9035.33
270.322	9005.96
270.391	8995.28
270.46	8999.75
270.529	8992.58
270.598	8995.37
270.667	8982.66
270.736	8956.47
270.806	8953.78
270.875	8954.98
270.944	8944.68
271.013	8968.12
271.082	8958.97
271.151	8957
271.22	8926.1
271.289	8919.94
271.358	8909.73
271.427	8904.92
271.496	8897.94
271.565	8881.48
271.634	8871.37
271.703	8892.65
271.772	8900.35
271.841	8890.48
271.91	8862.9
271.979	8847.26
272.048	8823.28
272.117	8833.68
272.186	8822.37
272.255	8821.94
272.324	8814.28
272.393	8811.35
272.462	8790.74
272.531	8779.19
272.6	8768.17
272.669	8774.52
272.738	8759.45
272.807	8754.4
272.876	8729.71
272.945	8756.57
273.013	8758.55
273.082	8760.09
273.151	8719.02
273.22	8717.58
273.289	8710.65
273.358	8723.89
273.427	8721.77
273.496	8719.75
273.564	8710.31
273.633	8712.09
273.702	8694.09
273.771	8688.03
273.84	8680.86
273.909	8677.73
273.977	8673.78
274.046	8667.19
274.115	8674.12
274.184	8662.67
274.253	8654.19
274.322	8669.35
274.39	8631.33
274.459	8614.77
274.528	8587.97
274.597	8586.09
274.665	8578.34
274.734	8590.66
274.803	8578.53
274.872	8571.6
274.94	8558.95
275.009	8613.65
275.078	8603.98
275.147	8604.26
275.215	8600.85
275.284	8613.6
275.353	8606.33
275.421	8587.61
275.49	8596.62
275.559	8584.39
275.627	8581.5
275.696	8571.69
275.765	8567.69
275.833	8562.88
275.902	8568.46
275.971	8578.81
276.039	8587.81
276.108	8594.98
276.177	8587.95
276.245	8577.94
276.314	8571.64
276.383	8581.94
276.451	8518.14
276.52	8515.35
276.588	8526.03
276.657	8526.37
276.725	8512.17
276.794	8512.7
276.863	8512.51
276.931	8492.63
277	8504.57
277.068	8510.29
277.137	8528
277.205	8532.09
277.274	8547.44
277.342	8553.99
277.411	8539.27
277.48	8524.2
277.548	8511.06
277.617	8513.81
277.685	8511.16
277.754	8511.93
277.822	8495.96
277.89	8510.93
277.959	8507.46
278.027	8487.06
278.096	8477.77
278.164	8501.79
278.233	8490.86
278.301	8487.21
278.37	8492.02
278.438	8472.43
278.507	8473.59
278.575	8449.05
278.643	8441.01
278.712	8425.85
278.78	8413
278.849	8420.94
278.917	8436.05
278.985	8434.08
279.054	8434.18
279.122	8447.89
279.191	8451.55
279.259	8451.84
279.327	8425.99
279.396	8445.19
279.464	8442.3
279.532	8452.89
279.601	8451.3
279.669	8454.38
279.737	8469.15
279.806	8467.13
279.874	8476.71
279.942	8474.4
280.011	8474.88
280.079	8482.58
280.147	8500.67
280.215	8506.45
280.284	8498.85
280.352	8484.7
280.42	8487.97
280.488	8483.73
280.557	8474.25
280.625	8475.27
280.693	8475.12
280.761	8476.04
280.83	8454.67
280.898	8467.32
280.966	8445.91
281.034	8412.71
281.102	8392.88
281.171	8386.97
281.239	8397.07
281.307	8388.6
281.375	8380.71
281.443	8405.69
281.512	8397.27
281.58	8396.93
281.648	8380.43
281.716	8387.26
281.784	8385.81
281.852	8382.06
281.92	8376.24
281.989	8381.82
282.057	8364.07
282.125	8404.83
282.193	8402.33
282.261	8404.93
282.329	8399.59
282.397	8406.61
282.465	8409.78
282.533	8428.59
282.601	8411.76
282.67	8390.53
282.738	8383.46
282.806	8393.85
282.874	8375.37
282.942	8379.22
283.01	8378.98
283.078	8385.24
283.146	8380.04
283.214	8386.92
283.282	8394.62
283.35	8409.16
283.418	8409.25
283.486	8412.04
283.554	8371.95
283.622	8374.64
283.69	8371.57
283.758	8366.37
283.826	8366.85
283.894	8375.8
283.962	8398.52
284.03	8422.96
284.098	8423.63
284.165	8424.45
284.233	8418.92
284.301	8411.75
284.369	8405.73
284.437	8389.32
284.505	8383.21
284.573	8396.3
284.641	8389.23
284.709	8390.48
284.777	8379.55
284.845	8378.69
284.912	8385.76
284.98	8395
285.048	8385.66
285.116	8388.17
285.184	8395.24
285.252	8394.37
285.319	8385.09
285.387	8370.84
285.455	8349.62
285.523	8360.69
285.591	8354
285.659	8358.43
285.726	8370.31
285.794	8356.41
285.862	8357.18
285.93	8358
285.997	8353.09
286.065	8342.36
286.133	8330.86
286.201	8321
286.269	8312.33
286.336	8303.43
286.404	8299.44
286.472	8314.93
286.539	8296.65
286.607	8285.54
286.675	8290.06
286.743	8296.17
286.81	8294.58
286.878	8309.45
286.946	8294.1
287.013	8293.96
287.081	8290.59
287.149	8280.68
287.216	8304.01
287.284	8300.4
287.352	8302.33
287.419	8298.43
287.487	8313.59
287.555	8313.11
287.622	8309.35
287.69	8313.01
287.758	8327.97
287.825	8318.98
287.893	8311.81
287.96	8318.01
288.028	8328.69
288.096	8330.23
288.163	8329.37
288.231	8318.49
288.298	8313.78
288.366	8335.05
288.433	8334.08
288.501	8332.21
288.569	8334.42
288.636	8326.96
288.704	8343.95
288.771	8350.25
288.839	8341.78
288.906	8341.64
288.974	8359.4
289.041	8360.41
289.109	8353.57
289.176	8358.39
289.244	8367.24
289.311	8376.62
289.379	8390.67
289.446	8393.03
289.514	8393.27
289.581	8392.55
289.649	8394.09
289.716	8407.85
289.783	8396.59
289.851	8415.06
289.918	8411.31
289.986	8420.41
290.053	8422.72
290.121	8421.18
290.188	8422.86
290.255	8451.92
290.323	8446.1
290.39	8436.67
290.458	8448.74
290.525	8463.04
290.592	8460.53
290.66	8456.35
290.727	8447.88
290.794	8459.72
290.862	8458.56
290.929	8461.83
290.996	8460.1
291.064	8469.77
291.131	8469.63
291.198	8481.32
291.266	8478.24
291.333	8485.36
291.4	8492.58
291.468	8512.17
291.535	8505.91
291.602	8511.93
291.669	8502.88
291.737	8504.81
291.804	8500.23
291.871	8509.76
291.938	8515.15
292.006	8545.53
292.073	8561.26
292.14	8568.58
292.207	8560.4
292.275	8558.71
292.342	8566.03
292.409	8594.9
292.476	8614.64
292.543	8613.29
292.611	8617.72
292.678	8635.43
292.745	8654.82
292.812	8663.49
292.879	8658.53
292.946	8658.77
293.014	8671.52
293.081	8681.63
293.148	8697.56
293.215	8715.65
293.282	8708.15
293.349	8715.99
293.416	8688.22
293.484	8700.3
293.551	8709.54
293.618	8722.29
293.685	8752.95
293.752	8744.43
293.819	8741.4
293.886	8733.31
293.953	8736.78
294.02	8747.8
294.087	8757.29
294.154	8756.23
294.221	8768.79
294.288	8766.72
294.356	8792.9
294.423	8796.51
294.49	8790.64
294.557	8800.85
294.624	8791.7
294.691	8819.23
294.758	8820.39
294.825	8831.22
294.892	8822.65
294.959	8823.66
295.026	8835.26
295.093	8826.16
295.16	8829.96
295.226	8831.46
295.293	8854.42
295.36	8859.71
295.427	8866.65
295.494	8880.56
295.561	8885.71
295.628	8909.93
295.695	8925.67
295.762	8925.14
295.829	8935.35
295.896	8949.07
295.963	8959.8
296.03	8974.82
296.096	8977.8
296.163	8993.02
296.23	9009.77
296.297	9024.26
296.364	9026.91
296.431	9029.51
296.498	9023.87
296.564	9050.59
296.631	9055.5
296.698	9040.19
296.765	9057.91
296.832	9043.7
296.899	9026.18
296.965	9050.88
297.032	9025.12
297.099	9037.88
297.166	9039.42
297.233	9029.26
297.299	9022.28
297.366	9021.03
297.433	9021.12
297.5	9030.8
297.566	9025.7
297.633	9021.7
297.7	9027.91
297.767	9022.23
297.833	9029.74
297.9	9039.18
297.967	9019.25
298.033	9031.96
298.1	9058.3
298.167	9055.31
298.234	9067.11
298.3	9080.44
298.367	9072.3
298.434	9088.38
298.5	9083.14
298.567	9083.04
298.634	9084.87
298.7	9108.75
298.767	9113.9
298.834	9132.72
298.9	9124.39
298.967	9115.87
299.033	9126.8
299.1	9139.52
299.167	9158.19
299.233	9153.04
299.3	9165.22
299.366	9187.12
299.433	9197.09
299.5	9178.17
299.566	9180.58
299.633	9201.09
299.699	9211.54
299.766	9208.26
299.832	9206.14
299.899	9214.33
299.965	9227.57
300.032	9230.27
300.099	9236.04
300.165	9240.62
300.232	9234.65
300.298	9241.53
300.365	9261.08
300.431	9265.65
300.498	9262.28
300.564	9268.45
300.631	9279.95
300.697	9292.91
300.763	9292.62
300.83	9294.3
300.896	9306.82
300.963	9319.63
301.029	9319.77
301.096	9319.15
301.162	9326.71
301.229	9319.34
301.295	9309.47
301.361	9313.23
301.428	9316.21
301.494	9299.17
301.561	9306.44
301.627	9314.91
301.693	9313.03
301.76	9322.13
301.826	9314.82
301.892	9326.95
301.959	9335.14
302.025	9337.98
302.092	9333.35
302.158	9343.71
302.224	9341.64
302.291	9332.58
302.357	9327.82
302.423	9321.22
302.49	9311.01
302.556	9325.36
302.622	9327.96
302.688	9340.1
302.755	9357.43
302.821	9365.28
302.887	9381.36
302.954	9375.54
303.02	9378.09
303.086	9384.49
303.152	9375.97
303.219	9378.04
303.285	9375.97
303.351	9385.21
303.417	9382.37
303.483	9371.35
303.55	9360.85
303.616	9361.62
303.682	9361.38
303.748	9360.9
303.815	9373.52
303.881	9387.62
303.947	9374.09
304.013	9380.98
304.079	9374.86
304.145	9351.17
304.212	9351.51
304.278	9343.95
304.344	9339.28
304.41	9330.32
304.476	9323.24
304.542	9317.37
304.608	9314.62
304.674	9300.76
304.741	9293.72
304.807	9298.11
304.873	9311.16
304.939	9330.8
305.005	9312.79
305.071	9313.27
305.137	9308.27
305.203	9284.53
305.269	9284.14
305.335	9294.78
305.401	9289.49
305.467	9285.25
305.533	9295.12
305.599	9302.2
305.666	9306.82
305.732	9309.28
305.798	9323.87
305.864	9352.04
305.93	9361.24
305.996	9364.85
306.062	9368.7
306.128	9367.59
306.194	9353.92
306.259	9348.38
306.325	9342.02
306.391	9354.93
306.457	9364.17
306.523	9367.69
306.589	9393.5
306.655	9388.78
306.721	9368.7
306.787	9353
306.853	9372.22
306.919	9354.59
306.985	9348.14
307.051	9341.83
307.117	9338.46
307.183	9329.75
307.248	9297.24
307.314	9297.72
307.38	9298.06
307.446	9301.58
307.512	9288.72
307.578	9299.41
307.644	9297.15
307.709	9300.23
307.775	9293.63
307.841	9289.11
307.907	9288.86
307.973	9273.31
308.039	9264.16
308.104	9270.71
308.17	9279.33
308.236	9262.42
308.302	9269.36
308.368	9260.02
308.433	9257.95
308.499	9251.74
308.565	9239.84
308.631	9243.55
308.696	9219.28
308.762	9207.2
308.828	9206.43
308.894	9192.76
308.959	9168.25
309.025	9154.58
309.091	9145.43
309.156	9138.64
309.222	9142.97
309.288	9132
309.354	9103.5
309.419	9102.29
309.485	9087.99
309.551	9087.95
309.616	9073.94
309.682	9071.05
309.748	9059.78
309.813	9054.92
309.879	9045.1
309.945	9030.08
310.01	9023.87
310.076	9037.4
310.141	9035.47
310.207	9016.12
310.273	9016.6
310.338	9022.37
310.404	9008.22
310.469	8993.59
310.535	8979.29
310.601	8950.35
310.666	8961.52
310.732	8979.38
310.797	8968.89
310.863	8958.73
310.928	8952.76
310.994	8952.52
311.059	8955.6
311.125	8955.41
311.191	8964.32
311.256	8956.38
311.322	8961.62
311.387	8943.67
311.453	9285.27
311.518	9258.56
311.584	9260.1
311.649	9266.11
311.715	9250.42
311.78	9259.61
311.846	9248.45
311.911	9260.87
311.976	9270.83
312.042	9247
312.107	9228.18
312.173	9221.49
312.238	9215.81
312.304	9212.01
312.369	9200.17
312.434	9175.71
312.5	9166.28
312.565	9140.23
312.631	9143.7
312.696	9138.69
312.761	9143.84
312.827	8788.14
312.892	8826.55
312.958	8823.81
313.023	8823.28
313.088	8826.07
313.154	8809.56
313.219	8802
313.284	8793.48
313.35	8781.26
313.415	8772.64
313.48	8765.52
313.546	8769.9
313.611	8781.45
313.676	8776.83
313.741	8776.06
313.807	8790.5
313.872	8793.96
313.937	8794.97
314.003	8802.05
314.068	8806.82
314.133	8811.2
314.198	8796.23
314.264	8772.4
314.329	8758.2
314.394	8749.73
314.459	8748.09
314.525	8769.03
314.59	8762.87
314.655	8750.69
314.72	8764.74
314.785	8771.24
314.851	8767.87
314.916	8749.78
314.981	8734.28
315.046	8719.36
315.111	8707.62
315.176	8695.15
315.242	8697.75
315.307	8696.79
315.372	8680.13
315.437	8665.16
315.502	8653.85
315.567	8666.46
315.632	8648.51
315.698	8651.59
315.763	8645.24
315.828	8638.84
315.893	8629.88
315.958	8632.87
316.023	8624.16
316.088	8597.93
316.153	8573.96
316.218	8565.78
316.283	8553.51
316.348	8542.49
316.413	8542.88
316.479	8526.33
316.544	8492.84
316.609	8467.43
316.674	8434.86
316.739	8401.04
316.804	8372.7
316.869	8341.09
316.934	8305.43
316.999	8281.62
317.064	8232.5
317.129	8194.05
317.194	8158.94
317.259	8109.77
317.324	8059.46
317.389	8014.87
317.454	7984.75
317.518	7948.11
317.583	7924.68
317.648	7899.24
317.713	7860.91
317.778	7797.23
317.843	7772.71
317.908	7733.86
317.973	7691.73
318.038	7663.03
318.103	7625.67
318.168	7596.25
318.233	7566.24
318.297	7520.04
318.362	7483.26
318.427	7449.42
318.492	7418.99
318.557	7370.98
318.622	7349.34
318.687	7327.38
318.751	7285.91
318.816	7252.22
318.881	7225.11
318.946	7173.21
319.011	7126.16
319.075	7081.52
319.14	7056.49
319.205	7014.26
319.27	6986.2
319.335	6941.43
319.399	6900.93
319.464	6873.5
319.529	6818.08
319.594	6776.81
319.658	6745.69
319.723	6706.5
319.788	6675.42
319.853	6627.97
319.917	6603.96
319.982	6554.88
320.047	6520.78
320.112	6499.71
320.176	6446.36
320.241	6413.04
320.306	6385.34
320.37	6346.99
320.435	6323.09
320.5	6294.09
320.564	6249.6
320.629	6209.63
320.694	6186.69
320.758	6147.34
320.823	6104.3
320.888	6080.56
320.952	6036.27
321.017	5994.92
321.082	5958.36
321.146	5926.94
321.211	5892.16
321.275	5848.23
321.34	5801.09
321.405	5755
321.469	5712.56
321.534	5674.3
321.598	5624.62
321.663	5591
321.727	5558.45
321.792	5510.42
321.857	5469.13
321.921	5437.31
321.986	5394.71
322.05	5336.82
322.115	5301.6
322.179	5256.14
322.244	5205.59
322.308	5173.06
322.373	5129.38
322.437	5083.63
322.502	5057.13
322.566	5013.2
322.631	4981.4
322.695	4944.39
322.76	4901.54
322.824	4865.62
322.889	4825.27
322.953	4782.01
323.018	4722.12
323.082	4663.93
323.146	4613.4
323.211	4556.17
323.275	4510.94
323.34	4467.37
323.404	4434.41
323.468	4391.06
323.533	4354.62
323.597	4307.39
323.662	4254.25
323.726	4219.77
323.79	4176.31
323.855	4110.02
323.919	4062.74
323.983	4019.7
324.048	3952.92
324.112	4099.84
324.177	3971.86
324.241	3765.72
324.305	3564.31
324.37	3365.38
324.434	3174.92
324.498	3133.37
324.562	3087.65
324.627	3029.44
324.691	2975.72
324.755	2910.45
324.82	2833.47
324.884	2757.46
324.948	2688.44
325.012	2599.21
325.077	2477.9
