Data from 20250703_urea_0.1M_MAYP1162681_06-21-05-204.txt Node
Date: Fri Jul 04 06:21:05 BST 2025
User: adleo
Spectrometer: MAYP116268
Trigger mode: 0
Integration Time (sec): 1.000000E0
Scans to average: 1
Electric dark correction enabled: true
Nonlinearity correction enabled: true
Boxcar width: 10
XAxis mode: Wavelengths
Number of Pixels in Spectrum: 2068
>>>>>Begin Spectral Data<<<<<
179.565	1264.5
179.642	1320.18
179.718	1371.21
179.795	1411.38
179.871	1443.8
179.948	1461.62
180.024	1482.98
180.101	1506.96
180.177	1521.64
180.254	1544.79
180.33	1568.01
180.407	1628.6
180.483	1729.28
180.56	1825.59
180.636	1909.9
180.712	1899.01
180.789	1907.71
180.865	1919.31
180.942	1924.54
181.018	1935.14
181.095	1948.98
181.171	1955.83
181.248	1957.82
181.324	1972.76
181.4	1979.13
181.477	1992.35
181.553	2006.23
181.63	2025.5
181.706	2041.1
181.782	2049.89
181.859	2048.51
181.935	2052.32
182.011	2046.99
182.088	2061.92
182.164	2079.58
182.24	2094.65
182.317	2101.88
182.393	2101.69
182.469	2116.86
182.546	2129.7
182.622	2134.27
182.698	2126.8
182.775	2136.55
182.851	2151.01
182.927	2139.97
183.003	2136.83
183.08	2131.22
183.156	2142.11
183.232	2140.16
183.308	2127.46
183.385	2137.36
183.461	2156.72
183.537	2160.05
183.613	2172.18
183.69	2164.52
183.766	2152.19
183.842	2162.33
183.918	2168.04
183.995	2182.07
184.071	2186.26
184.147	2181.45
184.223	2171.23
184.299	2185.74
184.375	2173.47
184.452	2181.71
184.528	2236.29
184.604	2245.76
184.68	2255.7
184.756	2261.27
184.832	2269.69
184.908	2276.16
184.985	2272.5
185.061	2255.89
185.137	2264.03
185.213	2253.37
185.289	2254.75
185.365	2247.95
185.441	2245.76
185.517	2257.14
185.593	2253.47
185.669	2252.29
185.745	2266.8
185.822	2283.73
185.898	2274.02
185.974	2282.77
186.05	2275.87
186.126	2236.22
186.202	2230.85
186.278	2227.66
186.354	2219.38
186.43	2223.71
186.506	2221.9
186.582	2223.38
186.658	2228.94
186.734	2207.16
186.81	2208.39
186.886	2209.73
186.962	2225.43
187.038	2224.43
187.114	2215.43
187.19	2218.43
187.266	2206.49
187.341	2205.58
187.417	2199.11
187.493	2198.68
187.569	2203.78
187.645	2194.07
187.721	2181.36
187.797	2189.45
187.873	2192.97
187.949	2188.03
188.025	2180.84
188.101	2184.41
188.176	2190.78
188.252	2187.12
188.328	2195.73
188.404	2195.44
188.48	2191.06
188.556	2181.31
188.632	2179.22
188.707	2185.55
188.783	2184.5
188.859	2178.89
188.935	2170.27
189.011	2178.41
189.086	2174.27
189.162	2165.09
189.238	2162.95
189.314	2163.19
189.39	2154.43
189.465	2147.06
189.541	2160.95
189.617	2145.73
189.693	2138.5
189.768	2142.31
189.844	2170.82
189.92	2164.5
189.996	2175.34
190.071	2185.19
190.147	2186.95
190.223	2195.95
190.298	2185.76
190.374	2170.35
190.45	2184.62
190.526	2192.99
190.601	2185.95
190.677	2186.57
190.753	2214.13
190.828	2219.36
190.904	2236.64
190.98	2254.58
191.055	2265.86
191.131	2258.86
191.207	2281.27
191.282	2295.11
191.358	2281.74
191.433	2265.46
191.509	2280.35
191.585	2276.06
191.66	2278.73
191.736	2284.92
191.811	2276.02
191.887	2291.34
191.963	2320.28
192.038	2324.27
192.114	2323.42
192.189	2326.7
192.265	2322.52
192.34	2299.38
192.416	2299.81
192.491	2291.43
192.567	2294.09
192.642	2296.62
192.718	2295.24
192.793	2282.81
192.869	2277.2
192.944	2282.72
193.02	2289.62
193.095	2290.05
193.171	2296.81
193.246	2297.66
193.322	2295.52
193.397	2299.04
193.473	2283.81
193.548	2264.06
193.624	2269.67
193.699	2268.25
193.775	2285.15
193.85	2286.86
193.925	2297.52
194.001	2295.47
194.076	2289.9
194.152	2277.77
194.227	2268.53
194.302	2258.97
194.378	2259.78
194.453	2255.6
194.529	2265.49
194.604	2248.93
194.679	2244.94
194.755	2225.38
194.83	2237.24
194.905	2236.38
194.981	2241.71
195.056	2235.96
195.131	2241.95
195.207	2242.57
195.282	2231.63
195.357	2209.4
195.433	2226.81
195.508	2216.11
195.583	2221.53
195.659	2237.19
195.734	2245.85
195.809	2247.14
195.884	2259.03
195.96	2260.6
196.035	2278.68
196.11	2274.97
196.185	2288.96
196.261	2292.72
196.336	2323.56
196.411	2307.7
196.486	2310.13
196.561	2303.94
196.637	2313.94
196.712	2329.89
196.787	2331.03
196.862	2347.83
196.937	2363.2
197.013	2364.63
197.088	2373.57
197.163	2396.95
197.238	2413.82
197.313	2412.77
197.388	2426.24
197.464	2455.39
197.539	2466.43
197.614	2458.43
197.689	2471.62
197.764	2487.91
197.839	2508.19
197.914	2503.29
197.989	2527
198.065	2542.33
198.14	2594.32
198.215	2619.94
198.29	2630.86
198.365	2644.48
198.44	2653.72
198.515	2681.11
198.59	2700.83
198.665	2730.08
198.74	2741.24
198.815	2745.05
198.89	2768.2
198.965	2799.61
199.04	2794.32
199.115	2810.23
199.19	2851.54
199.265	2855.25
199.34	2864.5
199.415	2898.31
199.49	2918.27
199.565	2929.9
199.64	2956.74
199.715	2954.21
199.79	2965.32
199.865	2973.76
199.94	2973.66
200.015	3006.56
200.09	3010.99
200.165	3018.14
200.24	3026.01
200.315	3065.14
200.39	3076.97
200.464	3085.08
200.539	3086.27
200.614	3103.96
200.689	3130.85
200.764	3138.92
200.839	3156.79
200.914	3164.66
200.989	3154.92
201.063	3171.8
201.138	3151.84
201.213	3149.36
201.288	3129.38
201.363	3132.33
201.438	3131.62
201.512	3147.49
201.587	3131.56
201.662	3135.57
201.737	3149.88
201.812	3157.89
201.886	3124.48
201.961	3136.93
202.036	3122.82
202.111	3122.2
202.186	3093.8
202.26	3073.67
202.335	3055.88
202.41	3050.64
202.485	3031.81
202.559	3012.69
202.634	2983.41
202.709	2994.94
202.784	2976.59
202.858	2978.07
202.933	2962.62
203.008	2959.71
203.082	2944.89
203.157	2946.99
203.232	2909.43
203.306	2892.98
203.381	2864.47
203.456	2845.69
203.53	2829.08
203.605	2816.98
203.68	2797.53
203.754	2800.43
203.829	2795.62
203.904	2781.61
203.978	2782.13
204.053	2799.34
204.127	2798.58
204.202	2811.78
204.277	2809.16
204.351	2819.12
204.426	2827.8
204.5	2836.47
204.575	2821.56
204.65	2851.74
204.724	2864.34
204.799	2893.44
204.873	2909.47
204.948	2934.45
205.022	2952.09
205.097	2967.36
205.171	3011.03
205.246	3051.15
205.32	3082.27
205.395	3117.96
205.469	3150
205.544	3191.47
205.618	3211.41
205.693	3261.32
205.767	3291.57
205.842	3358.59
205.916	3397.39
205.991	3437.1
206.065	3494.4
206.14	3561.16
206.214	3609.56
206.289	3661.11
206.363	3728.21
206.438	3789.14
206.512	3856.95
206.586	3936.51
206.661	4006.45
206.735	4047.49
206.81	4117.42
206.884	4199.93
206.958	4258.26
207.033	4344.76
207.107	4428.23
207.181	4534.8
207.256	4609.02
207.33	4709.42
207.405	4802.59
207.479	4902.31
207.553	4991.31
207.628	5053.36
207.702	5144.01
207.776	5224.65
207.851	5313.25
207.925	5420.24
207.999	5511.61
208.073	5599.3
208.148	5692.61
208.222	5778.94
208.296	5912.76
208.371	6027.13
208.445	6136.96
208.519	6260.27
208.593	6368.26
208.668	6463.71
208.742	6567.7
208.816	6667.98
208.89	6778.22
208.965	6875.04
209.039	6984.2
209.113	7103.1
209.187	7224.75
209.261	7324.25
209.336	7446.23
209.41	7565.88
209.484	7670.66
209.558	7790
209.632	7905.74
209.707	8022.56
209.781	8144.53
209.855	8258.74
209.929	8373.04
210.003	8472.97
210.077	8573.64
210.151	8722.04
210.226	8857.11
210.3	8988.36
210.374	9118.17
210.448	9223.51
210.522	9337.19
210.596	9449.81
210.67	9555.31
210.744	9702.77
210.818	9839.47
210.892	9961.24
210.966	10055.92
211.041	10165.75
211.115	10259
211.189	10377.51
211.263	10487.64
211.337	10587.6
211.411	10691.34
211.485	10778.89
211.559	10892.31
211.633	10984.82
211.707	11050.07
211.781	11146.84
211.855	11202.12
211.929	11278.84
212.003	11348.52
212.077	11448.24
212.151	11541.88
212.225	11648.01
212.299	11726.77
212.373	11803.26
212.447	11877.73
212.52	11994.47
212.594	12087.06
212.668	12179.99
212.742	12252.49
212.816	12333.23
212.89	12413.49
212.964	12499.82
213.038	12589.19
213.112	12683.62
213.186	12781.48
213.26	12840.34
213.333	12874.18
213.407	12951.54
213.481	13036.82
213.555	13134.38
213.629	13200.14
213.703	13266.04
213.777	13345.05
213.85	13402.8
213.924	13514.97
213.998	13598.56
214.072	13666.97
214.146	13719.94
214.219	13801.56
214.293	13876.57
214.367	13943.72
214.441	14023.98
214.515	14090.99
214.588	14137.84
214.662	14169.56
214.736	14219.36
214.81	14293.64
214.883	14371.69
214.957	14438.31
215.031	14491.38
215.105	14534.67
215.178	14584.85
215.252	14645.93
215.326	14676.54
215.4	14717.8
215.473	14725.13
215.547	14765.24
215.621	14810.4
215.694	14874.61
215.768	14906.13
215.842	14949.81
215.915	15000.32
215.989	15037.92
216.063	15075.23
216.136	15129.84
216.21	15189.04
216.284	15260.18
216.357	15318.27
216.431	15380.88
216.504	15440.07
216.578	15520.32
216.652	15583.57
216.725	15634.13
216.799	15701.94
216.873	15755.01
216.946	15825.19
217.02	15875.23
217.093	15919.09
217.167	15946.85
217.24	15984.45
217.314	16030.43
217.387	16073.66
217.461	16117.52
217.535	16178.06
217.608	16224.24
217.682	16272.91
217.755	16335.62
217.829	16370.95
217.902	16411.72
217.976	16449.94
218.049	16491.15
218.123	16526.33
218.196	16579.25
218.27	16623.4
218.343	16643.16
218.417	16693
218.49	16730.15
218.563	16797.77
218.637	16858.74
218.71	16926.98
218.784	16977.73
218.857	17038.65
218.931	17085.78
219.004	17130.36
219.077	17187.86
219.151	17234.61
219.224	17284.82
219.298	17324.73
219.371	17387.96
219.444	17429.98
219.518	17476.68
219.591	17519.96
219.665	17588.73
219.738	17631.38
219.811	17667.23
219.885	17731.09
219.958	17781.5
220.031	17821.4
220.105	17864.77
220.178	17902.31
220.251	17941.73
220.325	18008.19
220.398	18057.1
220.471	18121.34
220.544	18181.82
220.618	18205.77
220.691	18260.76
220.764	18314.25
220.838	18365.57
220.911	18399.83
220.984	18458.14
221.057	18506.72
221.131	18548.93
221.204	18553.32
221.277	18616.79
221.35	18689.41
221.424	18727.04
221.497	18773.55
221.57	18816.77
221.643	18865.49
221.716	18922.84
221.79	18958.98
221.863	18981.05
221.936	19013
222.009	19042.25
222.082	19079.31
222.155	19116.32
222.229	19164.46
222.302	19195.64
222.375	19228.84
222.448	19269.13
222.521	19308.84
222.594	19342.57
222.667	19378.23
222.74	19428.4
222.814	19454.9
222.887	19481.02
222.96	19518.42
223.033	19569.45
223.106	19612.82
223.179	19646.94
223.252	19668.43
223.325	19705.35
223.398	19744.43
223.471	19775.9
223.544	19796.86
223.617	19816.14
223.69	19848.47
223.763	19862.45
223.837	19899.85
223.91	19930.88
223.983	19939.75
224.056	19943.07
224.129	19961.58
224.202	19990.78
224.275	20013.24
224.348	20020.76
224.42	20030.11
224.493	20037.04
224.566	20040.9
224.639	20061.72
224.712	20069.62
224.785	20083.26
224.858	20092.47
224.931	20107.55
225.004	20116.9
225.077	20137.72
225.15	20135.5
225.223	20151.07
225.296	20188.61
225.369	20174.54
225.442	20178.25
225.514	20198.63
225.587	20225.72
225.66	20252.9
225.733	20262.82
225.806	20272.94
225.879	20284.03
225.952	20293.76
226.025	20319.59
226.097	20337.33
226.17	20351.74
226.243	20348.32
226.316	20355.69
226.389	20379.35
226.461	20398.2
226.534	20414.77
226.607	20429.76
226.68	20470.63
226.753	20471.88
226.825	20452.41
226.898	20485.71
226.971	20496.17
227.044	20515.3
227.117	20525.95
227.189	20531.74
227.262	20552.94
227.335	20566.53
227.407	20577.04
227.48	20588.51
227.553	20604.94
227.626	20617.52
227.698	20619.02
227.771	20631.31
227.844	20630.78
227.916	20638.49
227.989	20613.52
228.062	20622
228.134	20645.96
228.207	20644.99
228.28	20655.55
228.352	20663.16
228.425	20664.46
228.498	20682.78
228.57	20665.23
228.643	20680.71
228.716	20675.74
228.788	20673.28
228.861	20667.31
228.934	20686.3
229.006	20687.84
229.079	20678.15
229.151	20669.52
229.224	20661.19
229.296	20666.97
229.369	20695.65
229.442	20702.59
229.514	20705.48
229.587	20706.1
229.659	20684.46
229.732	20681.91
229.804	20695.74
229.877	20717.67
229.949	20723.79
230.022	20736.37
230.094	20738.97
230.167	20736.42
230.239	20735.07
230.312	20728.08
230.384	20753.34
230.457	20749.19
230.529	20749.38
230.602	20756.03
230.674	20752.85
230.747	20764.08
230.819	20774.11
230.892	20745.58
230.964	20748.18
231.037	20754.3
231.109	20756.47
231.181	20761.05
231.254	20750.78
231.326	20731.45
231.399	20727.65
231.471	20710.3
231.544	20684.75
231.616	20694.05
231.688	20690.44
231.761	20679.12
231.833	20681.86
231.905	20649.28
231.978	20644.22
232.05	20630.15
232.122	20611.79
232.195	20593.76
232.267	20598.92
232.339	20580.9
232.412	20583.98
232.484	20568.46
232.556	20547.16
232.629	20558.44
232.701	20561.76
232.773	20549.14
232.846	20545.43
232.918	20524.46
232.99	20520.8
233.062	20511.98
233.135	20500.46
233.207	20473.62
233.279	20469.38
233.351	20455.59
233.424	20441.91
233.496	20407.16
233.568	20424.03
233.64	20400.27
233.713	20388.12
233.785	20368.08
233.857	20351.84
233.929	20324.03
234.001	20318.29
234.074	20321.43
234.146	20277.91
234.218	20255.35
234.29	20244.85
234.362	20215.26
234.434	20187.69
234.507	20155.45
234.579	20119.12
234.651	20100.37
234.723	20097.57
234.795	20080.13
234.867	20056.18
234.939	20052.56
235.012	20036.37
235.084	20016.9
235.156	20005.19
235.228	19982.3
235.3	19948.42
235.372	19931.56
235.444	19920.28
235.516	19868.47
235.588	19848.18
235.66	19828.52
235.732	19788.96
235.804	19817.73
235.876	19807.8
235.948	19799.47
236.02	19778.45
236.092	19753.59
236.164	19720.77
236.236	19675.71
236.308	19645.02
236.38	19619.23
236.452	19585.36
236.524	19578.99
236.596	19556.01
236.668	19530.8
236.74	19507.91
236.812	19489.79
236.884	19478.47
236.956	19456.11
237.028	19427.2
237.1	19396.55
237.172	19389.7
237.244	19384.79
237.316	19322
237.388	19287.4
237.46	19239.78
237.532	19231.88
237.604	19199.5
237.675	19195.06
237.747	19187.02
237.819	19156.27
237.891	19131.36
237.963	19095.55
238.035	19051.51
238.107	18986.64
238.178	18977.39
238.25	18956.67
238.322	18957.54
238.394	18903.32
238.466	18870.51
238.538	18851.28
238.609	18820.82
238.681	18765.89
238.753	18723.19
238.825	18694.85
238.897	18672.11
238.968	18668.78
239.04	18622.09
239.112	18625.03
239.184	18577.27
239.255	18539.97
239.327	18518.24
239.399	18493.61
239.471	18474.34
239.542	18453.71
239.614	18441.76
239.686	18385.09
239.758	18360.03
239.829	18310.39
239.901	18296.56
239.973	18266.49
240.044	18243.41
240.116	18222.59
240.188	18189.15
240.259	18159.36
240.331	18124.91
240.403	18103.17
240.474	18055.47
240.546	18014.7
240.618	17965.68
240.689	17936.05
240.761	17898.84
240.833	17879.9
240.904	17842.27
240.976	17815.04
241.048	17786.61
241.119	17766.12
241.191	17749.02
241.262	17727.38
241.334	17692.78
241.405	17657.26
241.477	17619.62
241.549	17579.96
241.62	17548.83
241.692	17531.53
241.763	17511.19
241.835	17478.71
241.906	17442.47
241.978	17402.76
242.049	17388.01
242.121	17368.35
242.192	17344.25
242.264	17302.8
242.335	17252.05
242.407	17220.82
242.478	17175.76
242.55	17138.8
242.621	17095.62
242.693	17052
242.764	17017.74
242.836	16978.22
242.907	16953.25
242.979	16922.45
243.05	16891.8
243.122	16864.86
243.193	16829.58
243.264	16777.29
243.336	16735.22
243.407	16712.23
243.479	16692.32
243.55	16657.57
243.622	16619.69
243.693	16582.49
243.764	16575.64
243.836	16537.85
243.907	16507.39
243.978	16467.2
244.05	16439.24
244.121	16391
244.192	16368.83
244.264	16319.33
244.335	16287.04
244.407	16231.08
244.478	16202.64
244.549	16175.55
244.62	16123.93
244.692	16086.77
244.763	16063.49
244.834	16025.32
244.906	15979.44
244.977	15952.2
245.048	15945.75
245.119	15906.61
245.191	15872.87
245.262	15807.27
245.333	15789.77
245.405	15758.44
245.476	15734.63
245.547	15704.75
245.618	15683.3
245.689	15649.41
245.761	15621.26
245.832	15595.33
245.903	15582.41
245.974	15555.23
246.045	15515.94
246.117	15503.27
246.188	15466.97
246.259	15426.48
246.33	15400.93
246.401	15368.93
246.473	15321.69
246.544	15275.42
246.615	15264.28
246.686	15221.87
246.757	15212.95
246.828	15166.43
246.899	15148.12
246.97	15104.44
247.042	15066.07
247.113	15044.29
247.184	15037.49
247.255	15000.18
247.326	14962.82
247.397	14931.78
247.468	14900.4
247.539	14873.94
247.61	14819.61
247.681	14795.99
247.752	14776.37
247.823	14736.65
247.894	14707.92
247.965	14670.61
248.037	14639.66
248.108	14587.94
248.179	14568.32
248.25	14532.7
248.321	14517.08
248.392	14474.37
248.463	14473.6
248.534	14453.21
248.605	14432.62
248.675	14394.64
248.746	14369.81
248.817	14348.89
248.888	14316.84
248.959	14268.24
249.03	14243.32
249.101	14222.83
249.172	14194.39
249.243	14144.74
249.314	14138.18
249.385	14118.76
249.456	14102.22
249.527	14068.33
249.598	14047.36
249.669	14016.8
249.739	14000.12
249.81	13974.86
249.881	13936.59
249.952	13909.88
250.023	13876.57
250.094	13829.81
250.165	13788.83
250.235	13766.8
250.306	13745.98
250.377	13709.49
250.448	13698.25
250.519	13660.85
250.59	13653.28
250.66	13622.57
250.731	13615.48
250.802	13581.26
250.873	13551.08
250.944	13527.6
251.014	13487.69
251.085	13487.16
251.156	13471.73
251.227	13456.98
251.297	13452.64
251.368	13447.87
251.439	13422.61
251.51	13405.4
251.58	13370.93
251.651	13345.53
251.722	13333.76
251.792	13285.22
251.863	13257.74
251.934	13253.26
252.005	13253.4
252.075	13220.38
252.146	13204.23
252.217	13193.05
252.287	13183.99
252.358	13155.69
252.429	13142.43
252.499	13119.1
252.57	13098.37
252.641	13076.34
252.711	13056.63
252.782	13011.02
252.852	12996.66
252.923	12976.56
252.994	12957.85
253.064	12955.92
253.135	12924.06
253.205	12891.09
253.276	12899.86
253.347	12895.86
253.417	12854.31
253.488	12824.03
253.558	12803.59
253.629	12777.61
253.699	12762.86
253.77	12750.57
253.841	12726.95
253.911	12711.52
253.982	12699.76
254.052	12684.72
254.123	12666.55
254.193	12640.8
254.264	12658.74
254.334	12634.49
254.405	12604.12
254.475	12572.74
254.546	12548.44
254.616	12545.74
254.687	12525.55
254.757	12497.78
254.827	12469.39
254.898	12454.73
254.968	12432.75
255.039	12407.45
255.109	12403.74
255.18	12363.05
255.25	12311.76
255.321	12295.9
255.391	12267.61
255.461	12269.2
255.532	12216.56
255.602	12191.35
255.673	12149.22
255.743	12109.98
255.813	12065.3
255.884	12058.94
255.954	12049.78
256.024	12047.08
256.095	12033.54
256.165	12006.93
256.235	11997.48
256.306	11976.61
256.376	11972.71
256.446	11968.99
256.517	11956.27
256.587	11943.64
256.657	11936.02
256.728	11927.01
256.798	11915.83
256.868	11883.49
256.938	11852.69
257.009	11847.96
257.079	11837.02
257.149	11848.01
257.219	11813.79
257.29	11799.86
257.36	11756.77
257.43	11748.05
257.5	11710.69
257.571	11677.73
257.641	11662.35
257.711	11623.5
257.781	11617.43
257.852	11598.87
257.922	11549.86
257.992	11530.14
258.062	11504.07
258.132	11488.79
258.202	11463.68
258.273	11446.52
258.343	11452.02
258.413	11420.45
258.483	11400.35
258.553	11374.23
258.623	11346.51
258.693	11335.09
258.764	11330.56
258.834	11333.45
258.904	11309.5
258.974	11278.8
259.044	11261.21
259.114	11251.24
259.184	11238.95
259.254	11221.45
259.324	11179.91
259.394	11176.63
259.464	11176.49
259.535	11159.33
259.605	11139.28
259.675	11113.31
259.745	11097.02
259.815	11062.85
259.885	11044.01
259.955	11056.98
260.025	11035.82
260.095	11022.52
260.165	11010.81
260.235	11013.41
260.305	10983.82
260.375	10953.27
260.445	10964.35
260.515	10965.65
260.585	10958.81
260.655	10952.6
260.725	10936.93
260.795	10933.37
260.865	10930.04
260.934	10895.15
261.004	10884.89
261.074	10878.58
261.144	10879.44
261.214	10879.01
261.284	10862.1
261.354	10861.71
261.424	10837.13
261.494	10831.83
261.564	10811.69
261.634	10802.49
261.703	10760.95
261.773	10758.64
261.843	10759.46
261.913	10737.19
261.983	10697.83
262.053	10688.38
262.123	10663.13
262.192	10632.68
262.262	10629.22
262.332	10604.4
262.402	10594.43
262.472	10578
262.541	10533.43
262.611	10532.23
262.681	10502.11
262.751	10494.98
262.821	10477.92
262.89	10439.38
262.96	10433.26
263.03	10433.83
263.1	10418.75
263.169	10407.53
263.239	10396.01
263.309	10387.77
263.379	10376.74
263.448	10370.81
263.518	10357.66
263.588	10346.58
263.657	10351.59
263.727	10343.83
263.797	10328.22
263.867	10315.46
263.936	10286.46
264.006	10286.12
264.076	10262.94
264.145	10245.99
264.215	10229.42
264.285	10220.41
264.354	10190.64
264.424	10167.71
264.494	10133.45
264.563	10111.39
264.633	10119.43
264.702	10100.5
264.772	10072.8
264.842	10060.32
264.911	10051.65
264.981	10024.53
265.05	10005.31
265.12	9988.02
265.19	9974.67
265.259	9966.39
265.329	9964.65
265.398	9955.55
265.468	9965.47
265.537	9955.5
265.607	9946.25
265.676	9945.34
265.746	9932.28
265.815	9933.44
265.885	9919.76
265.955	9902.32
266.024	9883.35
266.094	9847.41
266.163	9854.21
266.232	9857.82
266.302	9838.79
266.371	9831.04
266.441	9819.05
266.51	9817.94
266.58	9803.25
266.649	9777.48
266.719	9782.25
266.788	9773.96
266.858	9781.91
266.927	9749.49
266.996	9733.45
267.066	9725.65
267.135	9697.38
267.205	9695.12
267.274	9688.81
267.343	9688.33
267.413	9676.53
267.482	9685.87
267.552	9686.88
267.621	9658.27
267.69	9626.78
267.76	9621.24
267.829	9609.53
267.898	9598.41
267.968	9576.45
268.037	9573.13
268.106	9575.78
268.176	9549.57
268.245	9531.03
268.314	9510.61
268.384	9506.76
268.453	9497.61
268.522	9486.63
268.592	9486.97
268.661	9462.55
268.73	9459.52
268.799	9437.17
268.869	9449.6
268.938	9420.8
269.007	9402.79
269.076	9388.87
269.146	9389.11
269.215	9379.19
269.284	9386.52
269.353	9370.67
269.422	9359.89
269.492	9342.84
269.561	9300.81
269.63	9294.55
269.699	9278.61
269.768	9270.13
269.838	9258.96
269.907	9255.83
269.976	9240.19
270.045	9208.94
270.114	9205.28
270.183	9188.72
270.253	9183.86
270.322	9151.26
270.391	9138.55
270.46	9145.1
270.529	9144.52
270.598	9138.07
270.667	9132.1
270.736	9109.51
270.806	9103.5
270.875	9105.52
270.944	9090.98
271.013	9117.12
271.082	9104.89
271.151	9104.12
271.22	9074.52
271.289	9063.64
271.358	9047.27
271.427	9042.74
271.496	9038.27
271.565	9028.78
271.634	9016.07
271.703	9036.63
271.772	9038.61
271.841	9026.43
271.91	9000
271.979	8990.47
272.048	8968.85
272.117	8961.05
272.186	8942.28
272.255	8942.9
272.324	8938.86
272.393	8938.38
272.462	8917
272.531	8914.11
272.6	8899.86
272.669	8908.24
272.738	8903.28
272.807	8902.7
272.876	8880.42
272.945	8907.66
273.013	8910.17
273.082	8912.96
273.151	8875.6
273.22	8871.79
273.289	8871.46
273.358	8883.93
273.427	8871.6
273.496	8876.18
273.564	8873.86
273.633	8880.46
273.702	8863.66
273.771	8854.27
273.84	8848.54
273.909	8845.85
273.977	8840.27
274.046	8831.79
274.115	8838.2
274.184	8818.75
274.253	8809.08
274.322	8820.87
274.39	8791.7
274.459	8776.78
274.528	8751.65
274.597	8739.62
274.665	8739.04
274.734	8742.12
274.803	8730.43
274.872	8725.81
274.94	8707.37
275.009	8734.09
275.078	8718.64
275.147	8719.8
275.215	8713.59
275.284	8716.57
275.353	8712.53
275.421	8682.84
275.49	8701.66
275.559	8686.35
275.627	8681.25
275.696	8671.82
275.765	8667.54
275.833	8658.73
275.902	8659.07
275.971	8667.15
276.039	8679.04
276.108	8681.25
276.177	8680.34
276.245	8669.85
276.314	8668.02
276.383	8677.55
276.451	8639.32
276.52	8638.07
276.588	8647.12
276.657	8651.79
276.725	8641.87
276.794	8636.72
276.863	8656.26
276.931	8626.75
277	8632.77
277.068	8647.45
277.137	8667.37
277.205	8666.84
277.274	8684.55
277.342	8691.1
277.411	8673.87
277.48	8661.51
277.548	8647.36
277.617	8648.9
277.685	8642.93
277.754	8642.83
277.822	8631.57
277.89	8645.58
277.959	8640.04
278.027	8622.52
278.096	8609.39
278.164	8638.89
278.233	8636.49
278.301	8624.26
278.37	8631.1
278.438	8615.79
278.507	8613.39
278.575	8591.49
278.643	8583.88
278.712	8566.03
278.78	8549.28
278.849	8561.45
278.917	8573.05
278.985	8567.81
279.054	8563.86
279.122	8571.32
279.191	8565.11
279.259	8558.81
279.327	8534.02
279.396	8552.84
279.464	8546.97
279.532	8552.94
279.601	8547.98
279.669	8536.91
279.737	8552.12
279.806	8553.08
279.874	8564.63
279.942	8569.87
280.011	8558.62
280.079	8562.51
280.147	8580.32
280.215	8586.53
280.284	8577.82
280.352	8563.53
280.42	8576.52
280.488	8570.6
280.557	8563.62
280.625	8571.75
280.693	8576.85
280.761	8583.69
280.83	8563.72
280.898	8571.75
280.966	8556.69
281.034	8520.02
281.102	8509.48
281.171	8498.36
281.239	8509.43
281.307	8501.06
281.375	8483.35
281.443	8510.01
281.512	8509.38
281.58	8506.69
281.648	8489.61
281.716	8490.52
281.784	8491.19
281.852	8480.17
281.92	8478.63
281.989	8493.17
282.057	8478.3
282.125	8522.54
282.193	8523.69
282.261	8528.65
282.329	8527.2
282.397	8529.9
282.465	8536.59
282.533	8551.45
282.601	8540.39
282.67	8513.2
282.738	8503.43
282.806	8513.48
282.874	8497.94
282.942	8505.21
283.01	8505.3
283.078	8510.21
283.146	8508.96
283.214	8517.77
283.282	8525.8
283.35	8538.6
283.418	8532.01
283.486	8533.7
283.554	8496.77
283.622	8495.14
283.69	8489.27
283.758	8479.93
283.826	8485.37
283.894	8497.35
283.962	8522.28
284.03	8542.78
284.098	8545.33
284.165	8536.77
284.233	8537.88
284.301	8536.86
284.369	8521.56
284.437	8511.74
284.505	8506.64
284.573	8527.82
284.641	8511.75
284.709	8514.15
284.777	8497.79
284.845	8501.54
284.912	8506.35
284.98	8503.56
285.048	8494.18
285.116	8504.43
285.184	8520.12
285.252	8515.79
285.319	8499.76
285.387	8482.1
285.455	8466.55
285.523	8476.13
285.591	8483.01
285.659	8480.75
285.726	8490.9
285.794	8482.43
285.862	8481.13
285.93	8483.83
285.997	8476.71
286.065	8476.08
286.133	8464.48
286.201	8459.38
286.269	8444.8
286.336	8435.85
286.404	8422.38
286.472	8433.69
286.539	8408.28
286.607	8392.31
286.675	8398.46
286.743	8407.41
286.81	8406.16
286.878	8416.27
286.946	8405.06
287.013	8404.29
287.081	8408.38
287.149	8398.7
287.216	8421.42
287.284	8417.38
287.352	8420.7
287.419	8416.8
287.487	8433.01
287.555	8437.34
287.622	8436.14
287.69	8440.18
287.758	8455.29
287.825	8459.96
287.893	8448.36
287.96	8456.11
288.028	8466.02
288.096	8466.89
288.163	8470.59
288.231	8463.81
288.298	8462.41
288.366	8477.91
288.433	8476.46
288.501	8461.69
288.569	8463.62
288.636	8450.91
288.704	8463.62
288.771	8468.96
288.839	8452.79
288.906	8442.68
288.974	8459.19
289.041	8454
289.109	8446.88
289.176	8455.06
289.244	8456.65
289.311	8472.96
289.379	8486.34
289.446	8489.95
289.514	8492.4
289.581	8488.26
289.649	8487.11
289.716	8485.33
289.783	8478.11
289.851	8496.44
289.918	8500.14
289.986	8504.19
290.053	8512.18
290.121	8512.51
290.188	8518.14
290.255	8551.35
290.323	8550.63
290.39	8532.19
290.458	8546.72
290.525	8561.25
290.592	8556.2
290.66	8563.32
290.727	8550.76
290.794	8558.46
290.862	8554.13
290.929	8553.12
290.996	8545.57
291.064	8554.08
291.131	8565.87
291.198	8581.71
291.266	8580.7
291.333	8584.55
291.4	8594.41
291.468	8607.22
291.535	8602.69
291.602	8606.64
291.669	8593.02
291.737	8596
291.804	8598.98
291.871	8613.42
291.938	8622.95
292.006	8649.48
292.073	8658.38
292.14	8672.39
292.207	8666.37
292.275	8665.79
292.342	8681.43
292.409	8717.87
292.476	8744.2
292.543	8739.39
292.611	8733.37
292.678	8750.99
292.745	8774.52
292.812	8785.79
292.879	8785.5
292.946	8792.04
293.014	8805.62
293.081	8819.34
293.148	8835.55
293.215	8855.43
293.282	8850.81
293.349	8854.71
293.416	8837.77
293.484	8851.24
293.551	8862.7
293.618	8882.39
293.685	8914.93
293.752	8901.16
293.819	8896.2
293.886	8879.88
293.953	8884.74
294.02	8898.17
294.087	8900.58
294.154	8890.28
294.221	8901.26
294.288	8901.88
294.356	8920.46
294.423	8922.29
294.49	8913.48
294.557	8925.47
294.624	8918.97
294.691	8936.64
294.758	8941.74
294.825	8942.37
294.892	8933.03
294.959	8929.47
295.026	8935.58
295.093	8923.59
295.16	8929.03
295.226	8931.1
295.293	8958.49
295.36	8965.76
295.427	8979.29
295.494	8993.4
295.561	9002.88
295.628	9028.6
295.695	9037.41
295.762	9040.44
295.829	9053.63
295.896	9075
295.963	9085.65
296.03	9098.64
296.096	9104.66
296.163	9111.31
296.23	9132.78
296.297	9149.39
296.364	9148.28
296.431	9155.36
296.498	9158.68
296.564	9183.13
296.631	9184.1
296.698	9165.51
296.765	9186.31
296.832	9181.21
296.899	9171.38
296.965	9188.96
297.032	9164.35
297.099	9190.25
297.166	9190.49
297.233	9181.44
297.299	9170.32
297.366	9169.02
297.433	9167.29
297.5	9177.4
297.566	9182.36
297.633	9174.22
297.7	9183.85
297.767	9181.83
297.833	9189.58
297.9	9192.95
297.967	9175.72
298.033	9188.62
298.1	9219.63
298.167	9209.95
298.234	9207.59
298.3	9212.26
298.367	9209.52
298.434	9219.44
298.5	9205.33
298.567	9206.05
298.634	9208.94
298.7	9228.97
298.767	9233.06
298.834	9249.24
298.9	9244.67
298.967	9231.81
299.033	9245.87
299.1	9256.27
299.167	9275
299.233	9268.88
299.3	9279.72
299.366	9299.02
299.433	9313.42
299.5	9288.96
299.566	9292.91
299.633	9310.68
299.699	9324.21
299.766	9321.75
299.832	9325.12
299.899	9334.66
299.965	9344.05
300.032	9334.8
300.099	9343.23
300.165	9347.51
300.232	9343.04
300.298	9343.33
300.365	9358.73
300.431	9358.54
300.498	9348.14
300.564	9355.17
300.631	9364.56
300.697	9376.69
300.763	9380.26
300.83	9376.98
300.896	9391.67
300.963	9402.36
301.029	9405.01
301.096	9416.42
301.162	9433.56
301.229	9425.09
301.295	9416.85
301.361	9420.75
301.428	9429.13
301.494	9414.44
301.561	9419.02
301.627	9423.79
301.693	9426.39
301.76	9433.9
301.826	9429.66
301.892	9445.31
301.959	9455.62
302.025	9453.06
302.092	9448.54
302.158	9451.67
302.224	9454.03
302.291	9443.53
302.357	9446.76
302.423	9445.5
302.49	9429.32
302.556	9437.61
302.622	9440.5
302.688	9449.21
302.755	9464.29
302.821	9476.61
302.887	9487.83
302.954	9484.03
303.02	9488.6
303.086	9500.26
303.152	9494.29
303.219	9496.69
303.285	9499.05
303.351	9504.25
303.417	9510.03
303.483	9506.76
303.55	9501.8
303.616	9502.28
303.682	9505.03
303.748	9493.76
303.815	9504.35
303.881	9513.17
303.947	9499.3
304.013	9501.94
304.079	9495.39
304.145	9471.08
304.212	9465.49
304.278	9459.47
304.344	9452.44
304.41	9442.47
304.476	9432.17
304.542	9430.1
304.608	9432.41
304.674	9417.57
304.741	9414.64
304.807	9419.07
304.873	9415.5
304.939	9434
305.005	9410.06
305.071	9408.23
305.137	9409.24
305.203	9389.6
305.269	9391.52
305.335	9400.29
305.401	9398.17
305.467	9394.17
305.533	9408.09
305.599	9421.67
305.666	9434.67
305.732	9441.36
305.798	9452.63
305.864	9472.19
305.93	9480.85
305.996	9480.03
306.062	9480.66
306.128	9473.24
306.194	9455.52
306.259	9462.65
306.325	9453.35
306.391	9467.32
306.457	9478.54
306.523	9483.64
306.589	9501.17
306.655	9488.6
306.721	9477.96
306.787	9463.9
306.853	9485.04
306.919	9474.45
306.985	9463.13
307.051	9450.66
307.117	9438.72
307.183	9432.99
307.248	9407.61
307.314	9408.76
307.38	9409.97
307.446	9414.16
307.512	9400.53
307.578	9405.82
307.644	9394.32
307.709	9396.44
307.775	9393.55
307.841	9385.07
307.907	9386.47
307.973	9370.96
308.039	9368.89
308.104	9371.39
308.17	9375.39
308.236	9356.95
308.302	9350.3
308.368	9339.71
308.433	9340.86
308.499	9339.56
308.565	9329.93
308.631	9337.88
308.696	9312.41
308.762	9298.73
308.828	9295.41
308.894	9278.56
308.959	9256.36
309.025	9253.14
309.091	9238.26
309.156	9232.48
309.222	9241
309.288	9226.13
309.354	9204.51
309.419	9206.63
309.485	9194.4
309.551	9195.75
309.616	9183.8
309.682	9181.06
309.748	9173.74
309.813	9162.24
309.879	9157.23
309.945	9143.7
310.01	9133.78
310.076	9139.89
310.141	9136.86
310.207	9118.03
310.273	9124.92
310.338	9131.9
310.404	9113.65
310.469	9107.35
310.535	9096.37
310.601	9068.44
310.666	9073.4
310.732	9081.01
310.797	9065.79
310.863	9057.99
310.928	9051.11
310.994	9051.64
311.059	9044.71
311.125	9049.76
311.191	9063.1
311.256	9051.35
311.322	9058.57
311.387	9038.88
311.453	9336.53
311.518	9308.41
311.584	9308.32
311.649	9316.79
311.715	9307.74
311.78	9312.56
311.846	9299.22
311.911	9303.84
311.976	9308.32
312.042	9294.36
312.107	9278.18
312.173	9277.08
312.238	9267.79
312.304	9263.02
312.369	9255.51
312.434	9248.82
312.5	9234.81
312.565	9202.46
312.631	9211.65
312.696	9200.29
312.761	9202.17
312.827	8898.99
312.892	8939.72
312.958	8938.32
313.023	8931.05
313.088	8933.41
313.154	8919.36
313.219	8915.07
313.284	8905.25
313.35	8898.99
313.415	8884.89
313.48	8887.87
313.546	8884.02
313.611	8898.51
313.676	8888.45
313.741	8878.49
313.807	8888.31
313.872	8890.86
313.937	8898.37
314.003	8905.45
314.068	8909.83
314.133	8919.21
314.198	8906.99
314.264	8886.19
314.329	8880.31
314.394	8876.13
314.459	8871.6
314.525	8888.59
314.59	8882.29
314.655	8877.09
314.72	8882.91
314.785	8889.27
314.851	8879.4
314.916	8860.29
314.981	8839.4
315.046	8834.4
315.111	8819.91
315.176	8801.52
315.242	8808.41
315.307	8808.79
315.372	8785.83
315.437	8774.66
315.502	8760.03
315.567	8769.9
315.632	8753.87
315.698	8748.52
315.763	8742.51
315.828	8732.98
315.893	8727.92
315.958	8726.29
316.023	8721.09
316.088	8702.75
316.153	8682.92
316.218	8681.09
316.283	8668.01
316.348	8655.73
316.413	8655.06
316.479	8650.15
316.544	8623.93
316.609	8594.09
316.674	8557.18
316.739	8529.32
316.804	8498.77
316.869	8463.21
316.934	8423.27
316.999	8396.56
317.064	8346.05
317.129	8305.49
317.194	8263.49
317.259	8217.34
317.324	8161.5
317.389	8110.8
317.454	8073.37
317.518	8040.42
317.583	8012.08
317.648	7993.66
317.713	7958.4
317.778	7892.75
317.843	7865.62
317.908	7829.12
317.973	7794.54
318.038	7769
318.103	7728.04
318.168	7696.25
318.233	7673.7
318.297	7628.02
318.362	7583.55
318.427	7547.64
318.492	7525
318.557	7487.6
318.622	7456.59
318.687	7441.41
318.751	7399.16
318.816	7373.83
318.881	7338.65
318.946	7285.96
319.011	7238.86
319.075	7201.28
319.14	7170.77
319.205	7120.6
319.27	7086.82
319.335	7038.29
319.399	6998.36
319.464	6972.32
319.529	6923.56
319.594	6879.69
319.658	6851.4
319.723	6820.32
319.788	6799.43
319.853	6742.55
319.917	6712.01
319.982	6664.37
320.047	6627.1
320.112	6604.49
320.176	6546.86
320.241	6516.94
320.306	6493.46
320.37	6453.61
320.435	6421.25
320.5	6397.1
320.564	6360.14
320.629	6323.14
320.694	6293.09
320.758	6249.18
320.823	6204.69
320.888	6178.64
320.952	6133.34
321.017	6091.83
321.082	6053.93
321.146	6018.8
321.211	5986.61
321.275	5948.09
321.34	5903.59
321.405	5860.42
321.469	5816.68
321.534	5775.11
321.598	5723.99
321.663	5683.93
321.727	5654.68
321.792	5603.76
321.857	5557.2
321.921	5517.75
321.986	5475.33
322.05	5416.43
322.115	5381.25
322.179	5341.1
322.244	5285.47
322.308	5252.31
322.373	5208.61
322.437	5168.46
322.502	5138.36
322.566	5092.76
322.631	5056.06
322.695	5020.05
322.76	4975.66
322.824	4938.02
322.889	4898.72
322.953	4854.06
323.018	4792.59
323.082	4726.96
323.146	4678.92
323.211	4628.9
323.275	4587.36
323.34	4543.2
323.404	4511.87
323.468	4467.56
323.533	4423.93
323.597	4381.37
323.662	4328.9
323.726	4292.45
323.79	4245.67
323.855	4183.05
323.919	4134.95
323.983	4087.33
324.048	4018.97
324.112	4167.44
324.177	4043.02
324.241	3833.92
324.305	3630.45
324.37	3429.75
324.434	3237.71
324.498	3193.78
324.562	3144.22
324.627	3084.02
324.691	3026.72
324.755	2960.87
324.82	2884.31
324.884	2806.34
324.948	2731.66
325.012	2638.43
325.077	2514.84
