Data from 20250703_urea_0.1M_MAYP1162681_02-11-05-419.txt Node
Date: Fri Jul 04 02:11:05 BST 2025
User: adleo
Spectrometer: MAYP116268
Trigger mode: 0
Integration Time (sec): 1.000000E0
Scans to average: 1
Electric dark correction enabled: true
Nonlinearity correction enabled: true
Boxcar width: 10
XAxis mode: Wavelengths
Number of Pixels in Spectrum: 2068
>>>>>Begin Spectral Data<<<<<
179.565	1316.62
179.642	1381.99
179.718	1430.16
179.795	1475.86
179.871	1512.15
179.948	1532.04
180.024	1557.52
180.101	1581.56
180.177	1597.5
180.254	1622.23
180.33	1645.41
180.407	1708.66
180.483	1812.1
180.56	1910.93
180.636	2003.33
180.712	1992.34
180.789	2003.66
180.865	2016.49
180.942	2024.43
181.018	2035.61
181.095	2050.83
181.171	2055.21
181.248	2056.3
181.324	2072.15
181.4	2078.71
181.477	2088.08
181.553	2105.15
181.63	2126.04
181.706	2144.12
181.782	2155.29
181.859	2153.3
181.935	2158.48
182.011	2153.53
182.088	2172.18
182.164	2191.51
182.24	2206.44
182.317	2215.96
182.393	2215.15
182.469	2231.75
182.546	2245.93
182.622	2250.88
182.698	2246.93
182.775	2256.02
182.851	2271.15
182.927	2263.63
183.003	2258.73
183.08	2253.74
183.156	2260.02
183.232	2256.5
183.308	2244.74
183.385	2249.98
183.461	2269.25
183.537	2274.05
183.613	2287.95
183.69	2276.62
183.766	2266.58
183.842	2273.57
183.918	2282.19
183.995	2296.13
184.071	2300.08
184.147	2294.32
184.223	2282.53
184.299	2294.71
184.375	2288.05
184.452	2293.57
184.528	2346.51
184.604	2358.36
184.68	2371.82
184.756	2378.16
184.832	2382.49
184.908	2387.82
184.985	2388.77
185.061	2374.35
185.137	2378.73
185.213	2366.5
185.289	2366.12
185.365	2360.5
185.441	2359.41
185.517	2371.79
185.593	2369.31
185.669	2364.88
185.745	2377.69
185.822	2394.1
185.898	2384.49
185.974	2392.57
186.05	2383.2
186.126	2347.92
186.202	2341.59
186.278	2338.07
186.354	2329.69
186.43	2337.79
186.506	2333.93
186.582	2333.22
186.658	2340.93
186.734	2323.32
186.81	2326.89
186.886	2333.17
186.962	2345.21
187.038	2339.79
187.114	2331.69
187.19	2337.88
187.266	2327.17
187.341	2325.74
187.417	2320.6
187.493	2322.74
187.569	2325.36
187.645	2320.41
187.721	2306.51
187.797	2313.22
187.873	2316.17
187.949	2309.42
188.025	2301.32
188.101	2303.8
188.176	2309.17
188.252	2302.8
188.328	2312.17
188.404	2311.93
188.48	2307.46
188.556	2300.98
188.632	2304.27
188.707	2306.93
188.783	2304.79
188.859	2299.99
188.935	2289.52
189.011	2297.08
189.086	2290.9
189.162	2280.86
189.238	2278.33
189.314	2277.57
189.39	2271.58
189.465	2263.48
189.541	2281.19
189.617	2266.2
189.693	2264.06
189.768	2267.91
189.844	2294.86
189.92	2284.59
189.996	2291.73
190.071	2304.82
190.147	2302.72
190.223	2307.48
190.298	2296.2
190.374	2280.26
190.45	2293.48
190.526	2302.58
190.601	2296.67
190.677	2298.2
190.753	2328.39
190.828	2331.48
190.904	2344.28
190.98	2360.33
191.055	2372.42
191.131	2366.23
191.207	2389.12
191.282	2398.21
191.358	2388.79
191.433	2372.59
191.509	2386.87
191.585	2387.06
191.66	2385.01
191.736	2391.39
191.811	2384.29
191.887	2404.82
191.963	2432.48
192.038	2438.47
192.114	2438.28
192.189	2442.23
192.265	2437.38
192.34	2415.71
192.416	2414.71
192.491	2412.8
192.567	2416.04
192.642	2421
192.718	2418.24
192.793	2403.38
192.869	2399.34
192.944	2400.72
193.02	2407.76
193.095	2411.48
193.171	2418.14
193.246	2417.14
193.322	2416.62
193.397	2417.9
193.473	2400.95
193.548	2381.28
193.624	2387.67
193.699	2387.95
193.775	2406.19
193.85	2409.19
193.925	2417.09
194.001	2415.62
194.076	2409.28
194.152	2397.67
194.227	2387.57
194.302	2377.63
194.378	2383.58
194.453	2381.44
194.529	2394.1
194.604	2379.67
194.679	2372.25
194.755	2350.74
194.83	2365.69
194.905	2363.5
194.981	2373.07
195.056	2369.84
195.131	2376.17
195.207	2371.69
195.282	2361.84
195.357	2341.27
195.433	2354.45
195.508	2344.21
195.583	2351.69
195.659	2363.88
195.734	2372.21
195.809	2373.78
195.884	2385.53
195.96	2384.82
196.035	2399.62
196.11	2397
196.185	2410.43
196.261	2417.23
196.336	2451.8
196.411	2435.13
196.486	2441.22
196.561	2435.03
196.637	2440.84
196.712	2455.6
196.787	2459.55
196.862	2475.22
196.937	2485.26
197.013	2494.74
197.088	2505.64
197.163	2531.51
197.238	2554.72
197.313	2555.77
197.388	2568.39
197.464	2601.88
197.539	2614.16
197.614	2611.07
197.689	2623.5
197.764	2639.41
197.839	2659.32
197.914	2651.6
197.989	2677.71
198.065	2694.57
198.14	2748.49
198.215	2776.98
198.29	2792.42
198.365	2809.62
198.44	2821.72
198.515	2853.75
198.59	2870.34
198.665	2898.98
198.74	2906.66
198.815	2903.85
198.89	2924.53
198.965	2956.95
199.04	2951.37
199.115	2967.53
199.19	3010.24
199.265	3012.52
199.34	3023.49
199.415	3058.74
199.49	3084.1
199.565	3094.21
199.64	3116.76
199.715	3113.95
199.79	3123.44
199.865	3132.26
199.94	3131.78
200.015	3164.17
200.09	3168.51
200.165	3173.38
200.24	3178.2
200.315	3222.31
200.39	3239.72
200.464	3248.54
200.539	3251.41
200.614	3268.67
200.689	3293.96
200.764	3303.17
200.839	3324.01
200.914	3331.16
200.989	3322.19
201.063	3335.69
201.138	3317.1
201.213	3315.19
201.288	3295.3
201.363	3301.45
201.438	3301.12
201.512	3317.33
201.587	3300.82
201.662	3304.21
201.737	3316.18
201.812	3325.63
201.886	3289.44
201.961	3301.61
202.036	3288.88
202.111	3289.07
202.186	3256.13
202.26	3238.57
202.335	3217.05
202.41	3212.8
202.485	3192.3
202.559	3172.07
202.634	3143.5
202.709	3154.8
202.784	3141.02
202.858	3144.55
202.933	3124.42
203.008	3121.17
203.082	3103.53
203.157	3106.73
203.232	3067.21
203.306	3054.37
203.381	3025.71
203.456	3007.87
203.53	2985.49
203.605	2974.81
203.68	2954.44
203.754	2959.64
203.829	2951.39
203.904	2939.18
203.978	2939.85
204.053	2956.68
204.127	2957.44
204.202	2971.51
204.277	2969.31
204.351	2979.23
204.426	2987.29
204.5	3000.22
204.575	2982.01
204.65	3014.97
204.724	3031.53
204.799	3067.19
204.873	3088.28
204.948	3119.57
205.022	3135.88
205.097	3165.81
205.171	3211.27
205.246	3258.81
205.32	3293.29
205.395	3331.42
205.469	3362.33
205.544	3409.66
205.618	3440.88
205.693	3503.71
205.767	3540.43
205.842	3618.86
205.916	3664.65
205.991	3709.26
206.065	3772.95
206.14	3853.69
206.214	3911.26
206.289	3965.52
206.363	4046.12
206.438	4117.57
206.512	4191.26
206.586	4287.75
206.661	4367.77
206.735	4420.65
206.81	4496.24
206.884	4592.72
206.958	4664.83
207.033	4769
207.107	4864.61
207.181	4983.82
207.256	5068.28
207.33	5183.33
207.405	5286.27
207.479	5399.98
207.553	5510.68
207.628	5587.93
207.702	5693.25
207.776	5784.36
207.851	5895.54
207.925	6011.67
207.999	6110.61
208.073	6218.05
208.148	6325.81
208.222	6421.06
208.296	6561.86
208.371	6692.81
208.445	6819.94
208.519	6961.38
208.593	7085.75
208.668	7189.56
208.742	7307.43
208.816	7423.83
208.89	7552.15
208.965	7665.36
209.039	7798.34
209.113	7931.65
209.187	8077.23
209.261	8199.77
209.336	8341.58
209.41	8476.55
209.484	8592.09
209.558	8743.5
209.632	8874.69
209.707	9001.47
209.781	9150.7
209.855	9295.13
209.929	9424.92
210.003	9546.41
210.077	9663.47
210.151	9834.27
210.226	9995.15
210.3	10140.01
210.374	10281.91
210.448	10403.88
210.522	10532.18
210.596	10650.99
210.67	10774.82
210.744	10936.34
210.818	11075.58
210.892	11208.05
210.966	11319.13
211.041	11454.16
211.115	11560
211.189	11694.89
211.263	11829.16
211.337	11940.79
211.411	12067.22
211.485	12176.54
211.559	12298.87
211.633	12409.44
211.707	12482.61
211.781	12594.16
211.855	12669.5
211.929	12766.15
212.003	12842.65
212.077	12958.39
212.151	13086.57
212.225	13200.04
212.299	13293.37
212.373	13383.56
212.447	13484.65
212.52	13615.72
212.594	13713.58
212.668	13827.1
212.742	13910.36
212.816	13999.73
212.89	14084.57
212.964	14168.93
213.038	14264.28
213.112	14370.57
213.186	14478.46
213.26	14549.85
213.333	14596.32
213.407	14688.34
213.481	14775.3
213.555	14886.9
213.629	14963.25
213.703	15018.44
213.777	15097.55
213.85	15161.46
213.924	15280.47
213.998	15365.31
214.072	15435.87
214.146	15502.2
214.219	15570.74
214.293	15647.57
214.367	15727.44
214.441	15815.98
214.515	15884.95
214.588	15938.79
214.662	15974.27
214.736	16032.69
214.81	16119.78
214.883	16201.48
214.957	16263.85
215.031	16326.65
215.105	16366.08
215.178	16416.4
215.252	16483.49
215.326	16524.6
215.4	16569.52
215.473	16590.24
215.547	16627.69
215.621	16684.9
215.694	16763.94
215.768	16808.9
215.842	16851.27
215.915	16910.11
215.989	16949.01
216.063	16999.99
216.136	17057.68
216.21	17121.83
216.284	17193.59
216.357	17249.78
216.431	17299.9
216.504	17362.75
216.578	17449.25
216.652	17524.05
216.725	17577.4
216.799	17646.8
216.873	17709.64
216.946	17777.59
217.02	17829.45
217.093	17889.35
217.167	17915.85
217.24	17943.61
217.314	17991.51
217.387	18043.61
217.461	18082.4
217.535	18146.54
217.608	18186.3
217.682	18250.4
217.755	18308.61
217.829	18344.99
217.902	18384.36
217.976	18437.95
218.049	18477.76
218.123	18513.95
218.196	18565.85
218.27	18615.05
218.343	18638.28
218.417	18691.29
218.49	18735.53
218.563	18799.14
218.637	18838.6
218.71	18906.94
218.784	18962.55
218.857	19021.77
218.931	19075.94
219.004	19126.63
219.077	19178.15
219.151	19216.75
219.224	19240.65
219.298	19280.89
219.371	19335.68
219.444	19366.62
219.518	19412.4
219.591	19462.08
219.665	19522.8
219.738	19563.57
219.811	19604.54
219.885	19657.21
219.958	19706.27
220.031	19740.87
220.105	19789.06
220.178	19835.95
220.251	19869.54
220.325	19914.16
220.398	19947.32
220.471	19995.27
220.544	20034.3
220.618	20065
220.691	20115.21
220.764	20161.38
220.838	20210.44
220.911	20240.99
220.984	20312.85
221.057	20354.05
221.131	20396.7
221.204	20398.39
221.277	20459.07
221.35	20522.63
221.424	20556.56
221.497	20588.22
221.57	20625.57
221.643	20665.77
221.716	20720.13
221.79	20744.86
221.863	20775.36
221.936	20806.64
222.009	20839.51
222.082	20875.03
222.155	20903.13
222.229	20956.82
222.302	20991.03
222.375	21021.64
222.448	21053.26
222.521	21070.46
222.594	21095.67
222.667	21105.89
222.74	21154.08
222.814	21169.22
222.887	21187.24
222.96	21223.29
223.033	21264.02
223.106	21299.54
223.179	21322.82
223.252	21335.74
223.325	21358.68
223.398	21391.75
223.471	21421.39
223.544	21440.72
223.617	21463.42
223.69	21488.77
223.763	21489.69
223.837	21513.16
223.91	21532.78
223.983	21540.25
224.056	21547.67
224.129	21570.66
224.202	21601.03
224.275	21604.83
224.348	21615.44
224.42	21614.67
224.493	21619.15
224.566	21613.22
224.639	21628.89
224.712	21635.92
224.785	21641.32
224.858	21654.43
224.931	21659.4
225.004	21663.11
225.077	21681.38
225.15	21664.03
225.223	21665.95
225.296	21702.78
225.369	21703.94
225.442	21701.09
225.514	21712.47
225.587	21732.14
225.66	21739.03
225.733	21751.13
225.806	21757.68
225.879	21754.4
225.952	21751.18
226.025	21774.36
226.097	21803.14
226.17	21805.79
226.243	21790.12
226.316	21793.21
226.389	21804.39
226.461	21814.61
226.534	21815.77
226.607	21805.16
226.68	21838.9
226.753	21844.06
226.825	21810.13
226.898	21824.49
226.971	21836.2
227.044	21847.82
227.117	21845.07
227.189	21859.49
227.262	21863.15
227.335	21868.69
227.407	21874.04
227.48	21886.67
227.553	21872.89
227.626	21856.88
227.698	21851.68
227.771	21854.71
227.844	21839.58
227.916	21831.05
227.989	21809.16
228.062	21812.87
228.134	21837.31
228.207	21812.73
228.28	21804.25
228.352	21803.96
228.425	21797.11
228.498	21796.1
228.57	21777.69
228.643	21789.59
228.716	21773.83
228.788	21757.59
228.861	21755.66
228.934	21761.54
229.006	21745.34
229.079	21741.58
229.151	21738.59
229.224	21720.95
229.296	21721.77
229.369	21756.48
229.442	21766.07
229.514	21762.31
229.587	21764.29
229.659	21735.51
229.732	21747.95
229.804	21753.01
229.877	21776.96
229.949	21785.4
230.022	21800.73
230.094	21794.41
230.167	21784.48
230.239	21775.13
230.312	21783.23
230.384	21790.22
230.457	21778.99
230.529	21777.69
230.602	21772.77
230.674	21768.34
230.747	21783.28
230.819	21783.81
230.892	21736.81
230.964	21736.81
231.037	21728.14
231.109	21718.01
231.181	21722.16
231.254	21705.82
231.326	21694.54
231.399	21679.65
231.471	21647.98
231.544	21607.39
231.616	21605.37
231.688	21593.22
231.761	21564.73
231.833	21539.86
231.905	21504.82
231.978	21500.19
232.05	21487.61
232.122	21477.93
232.195	21460.14
232.267	21446.45
232.339	21428.04
232.412	21439.99
232.484	21411.46
232.556	21397.19
232.629	21402.49
232.701	21385.29
232.773	21364.95
232.846	21344.56
232.918	21319.98
232.99	21316.27
233.062	21304.75
233.135	21290.82
233.207	21262.48
233.279	21261.18
233.351	21246.57
233.424	21225.08
233.496	21202.81
233.568	21206.33
233.64	21175.39
233.713	21153.07
233.785	21133.5
233.857	21111.28
233.929	21064.34
234.001	21064.29
234.074	21054.7
234.146	21010.26
234.218	21003.08
234.29	20987.47
234.362	20961.97
234.434	20931.75
234.507	20893.15
234.579	20858.74
234.651	20830.93
234.723	20813.19
234.795	20787.22
234.867	20756.76
234.939	20749.53
235.012	20720.03
235.084	20701.19
235.156	20686.25
235.228	20654.49
235.3	20619.89
235.372	20602.05
235.444	20598.2
235.516	20542.39
235.588	20510.29
235.66	20490.1
235.732	20437.52
235.804	20462.39
235.876	20445.67
235.948	20431.88
236.02	20404.56
236.092	20388.46
236.164	20362.63
236.236	20327.69
236.308	20286.63
236.38	20265.14
236.452	20219.7
236.524	20191.07
236.596	20181.09
236.668	20158.44
236.74	20131.22
236.812	20117.24
236.884	20093.63
236.956	20056.71
237.028	20016.91
237.1	19980.43
237.172	19970.16
237.244	19961.39
237.316	19887.99
237.388	19846.4
237.46	19806.65
237.532	19802.89
237.604	19758.7
237.675	19750.41
237.747	19735.66
237.819	19710.17
237.891	19682.41
237.963	19656.29
238.035	19620.92
238.107	19535.48
238.178	19515.67
238.25	19488.11
238.322	19468.16
238.394	19413.17
238.466	19385.94
238.538	19373.08
238.609	19356.21
238.681	19303.44
238.753	19259.35
238.825	19234.29
238.897	19206.58
238.968	19197.23
239.04	19144.99
239.112	19134.59
239.184	19086.54
239.255	19043.99
239.327	19011.12
239.399	18974.35
239.471	18948.86
239.542	18918.45
239.614	18921.68
239.686	18858.65
239.758	18832.48
239.829	18790.51
239.901	18784.15
239.973	18745.16
240.044	18715.77
240.116	18670.57
240.188	18634.81
240.259	18601.85
240.331	18563.87
240.403	18540.36
240.474	18489.95
240.546	18445.95
240.618	18398.34
240.689	18365.23
240.761	18337.81
240.833	18325.62
240.904	18294.3
240.976	18255.26
241.048	18230.64
241.119	18195.03
241.191	18168.52
241.262	18150.45
241.334	18114.69
241.405	18068.09
241.477	18029.54
241.549	17987.85
241.62	17955.28
241.692	17926.55
241.763	17907.18
241.835	17864.63
241.906	17825.35
241.978	17779.33
242.049	17760.44
242.121	17734.8
242.192	17704.2
242.264	17655.19
242.335	17602.66
242.407	17589.64
242.478	17556.83
242.55	17521.6
242.621	17476.06
242.693	17443.38
242.764	17399.86
242.836	17359.29
242.907	17335.24
242.979	17312.1
243.05	17287.81
243.122	17263.24
243.193	17229.31
243.264	17171.38
243.336	17145.07
243.407	17121.5
243.479	17108.29
243.55	17081.88
243.622	17054.61
243.693	17024.44
243.764	17003.23
243.836	16968.14
243.907	16916.58
243.978	16881.34
244.05	16853.54
244.121	16804.28
244.192	16779.41
244.264	16731.51
244.335	16699.74
244.407	16651.4
244.478	16622.78
244.549	16584.75
244.62	16541.95
244.692	16496.93
244.763	16479.44
244.834	16435.87
244.906	16398.95
244.977	16368.83
245.048	16348.63
245.119	16304.77
245.191	16270.07
245.262	16217.3
245.333	16198.98
245.405	16171.41
245.476	16146.06
245.547	16119.94
245.618	16100.99
245.689	16072.03
245.761	16040.5
245.832	16009.32
245.903	15985.75
245.974	15953.94
246.045	15916.78
246.117	15905.84
246.188	15867.81
246.259	15815.03
246.33	15786.44
246.401	15746.29
246.473	15694.04
246.544	15647.1
246.615	15627.72
246.686	15576.92
246.757	15562.17
246.828	15516.28
246.899	15502.74
246.97	15455.45
247.042	15413.18
247.113	15386.96
247.184	15373.03
247.255	15340.1
247.326	15304.48
247.397	15266.64
247.468	15238.3
247.539	15221.14
247.61	15166.14
247.681	15146.96
247.752	15135.29
247.823	15092.68
247.894	15067.52
247.965	15026.59
248.037	15001.58
248.108	14956.27
248.179	14934.29
248.25	14900.78
248.321	14884.54
248.392	14834.79
248.463	14824.48
248.534	14791.36
248.605	14766.97
248.675	14731.16
248.746	14704.64
248.817	14684.45
248.888	14662.42
248.959	14616.19
249.03	14592.81
249.101	14568.42
249.172	14530.91
249.243	14472.78
249.314	14470.8
249.385	14443.04
249.456	14425.83
249.527	14385.62
249.598	14358.53
249.669	14333.46
249.739	14310.86
249.81	14283.33
249.881	14241.05
249.952	14213.96
250.023	14181.95
250.094	14132.16
250.165	14091.76
250.235	14064.04
250.306	14034.69
250.377	13998.63
250.448	13976.07
250.519	13922.46
250.59	13919.71
250.66	13892.24
250.731	13888.62
250.802	13853.19
250.873	13834.39
250.944	13814.29
251.014	13788.55
251.085	13797.32
251.156	13770.32
251.227	13767.14
251.297	13756.63
251.368	13750.22
251.439	13736.92
251.51	13730.26
251.58	13702.93
251.651	13667.88
251.722	13664.7
251.792	13626.23
251.863	13603.29
251.934	13600.39
252.005	13607.48
252.075	13575.38
252.146	13570.12
252.217	13563.9
252.287	13550.02
252.358	13519.84
252.429	13513.43
252.499	13484.46
252.57	13455.73
252.641	13444.64
252.711	13414.12
252.782	13370.21
252.852	13366.26
252.923	13334.68
252.994	13311.88
253.064	13301.42
253.135	13277.31
253.205	13249.55
253.276	13248.29
253.347	13230.36
253.417	13193.1
253.488	13160.8
253.558	13135.3
253.629	13110.62
253.699	13092.01
253.77	13076.97
253.841	13057.4
253.911	13042.65
253.982	13020.09
254.052	13008.18
254.123	12988.32
254.193	12961.76
254.264	12973.42
254.334	12937.32
254.405	12905.64
254.475	12874.17
254.546	12855.51
254.616	12850.4
254.687	12830.44
254.757	12813.72
254.827	12798.72
254.898	12780.89
254.968	12762.14
255.039	12737.94
255.109	12720.34
255.18	12687.61
255.25	12646.11
255.321	12626.92
255.391	12580.69
255.461	12588.65
255.532	12536.15
255.602	12510.31
255.673	12473.92
255.743	12456.47
255.813	12407.98
255.884	12403.4
255.954	12388.65
256.024	12389.32
256.095	12365.46
256.165	12326.99
256.235	12309.16
256.306	12278.84
256.376	12274.26
256.446	12259.85
256.517	12241.72
256.587	12238.93
256.657	12222.59
256.728	12202.49
256.798	12187.54
256.868	12170.29
256.938	12139.24
257.009	12128.16
257.079	12120.49
257.149	12129.89
257.219	12075.33
257.29	12066.07
257.36	12022.74
257.43	12015.7
257.5	11966.78
257.571	11946.1
257.641	11933.91
257.711	11899.11
257.781	11895.35
257.852	11877.56
257.922	11836.73
257.992	11817.31
258.062	11791.86
258.132	11783.18
258.202	11762.55
258.273	11740.82
258.343	11738.65
258.413	11713.97
258.483	11694.93
258.553	11664.42
258.623	11640.56
258.693	11629.38
258.764	11627.84
258.834	11629.14
258.904	11608.17
258.974	11591.06
259.044	11566
259.114	11549.13
259.184	11534.67
259.254	11504.84
259.324	11457.46
259.394	11452.55
259.464	11454.28
259.535	11424.5
259.605	11399.39
259.675	11375.72
259.745	11366.37
259.815	11336.44
259.885	11314.37
259.955	11329.65
260.025	11295.19
260.095	11270.32
260.165	11257.79
260.235	11259.96
260.305	11229.17
260.375	11195.96
260.445	11200.97
260.515	11199.24
260.585	11204.97
260.655	11186.18
260.725	11187.19
260.795	11182.76
260.865	11184.25
260.934	11149.21
261.004	11142.56
261.074	11125.26
261.144	11122.81
261.214	11113.02
261.284	11093.7
261.354	11089.12
261.424	11054.71
261.494	11067.53
261.564	11056.83
261.634	11055.19
261.703	11017.36
261.773	11017.45
261.843	11013.02
261.913	10988.3
261.983	10958.81
262.053	10947.15
262.123	10938.09
262.192	10904.89
262.262	10900.4
262.332	10868.84
262.402	10861.03
262.472	10853.9
262.541	10818.29
262.611	10815.5
262.681	10790.63
262.751	10787.94
262.821	10766.69
262.89	10740.18
262.96	10725.92
263.03	10726.4
263.1	10710.59
263.169	10696.96
263.239	10683.61
263.309	10687.95
263.379	10682.26
263.448	10669.54
263.518	10646.94
263.588	10624.44
263.657	10630.32
263.727	10626.08
263.797	10611.14
263.867	10595.68
263.936	10562.82
264.006	10564.36
264.076	10549.04
264.145	10531.93
264.215	10505.24
264.285	10499.22
264.354	10467.76
264.424	10446.75
264.494	10413.94
264.563	10396.4
264.633	10402.42
264.702	10393.89
264.772	10360.5
264.842	10338.77
264.911	10333.86
264.981	10304.09
265.05	10298.35
265.12	10272
265.19	10255.47
265.259	10251.09
265.329	10244.78
265.398	10232.45
265.468	10242.51
265.537	10217.46
265.607	10205.47
265.676	10208.65
265.746	10200.27
265.815	10200.55
265.885	10187.16
265.955	10166.06
266.024	10141.93
266.094	10106.66
266.163	10102.76
266.232	10098.38
266.302	10082.67
266.371	10071.16
266.441	10063.98
266.51	10058.06
266.58	10043.42
266.649	10024.53
266.719	10022.17
266.788	10015.47
266.858	10029.64
266.927	9987.15
266.996	9983.15
267.066	9980.89
267.135	9949.29
267.205	9942.64
267.274	9930.5
267.343	9929.64
267.413	9914.61
267.482	9921.07
267.552	9924.73
267.621	9891.59
267.69	9865.72
267.76	9859.17
267.829	9850.6
267.898	9839.57
267.968	9812.45
268.037	9807.39
268.106	9805.66
268.176	9778.44
268.245	9764.86
268.314	9741.74
268.384	9742.85
268.453	9731
268.522	9721.56
268.592	9726.95
268.661	9709.18
268.73	9702.34
268.799	9681
268.869	9693.72
268.938	9663.23
269.007	9642.66
269.076	9638.38
269.146	9637.32
269.215	9633.9
269.284	9636.5
269.353	9616.18
269.422	9604.81
269.492	9592.29
269.561	9552.37
269.63	9547.7
269.699	9530.41
269.768	9517.5
269.838	9513.6
269.907	9511.05
269.976	9485.48
270.045	9452.73
270.114	9440.65
270.183	9427.98
270.253	9419.84
270.322	9388.16
270.391	9375.45
270.46	9382.81
270.529	9380.74
270.598	9381.18
270.667	9361.96
270.736	9341.49
270.806	9343.71
270.875	9347.66
270.944	9336.29
271.013	9360.08
271.082	9351.32
271.151	9348.62
271.22	9321.51
271.289	9311.45
271.358	9297.24
271.427	9292.91
271.496	9283.19
271.565	9274.76
271.634	9269.56
271.703	9271.34
271.772	9273.75
271.841	9267.15
271.91	9237.3
271.979	9228.87
272.048	9200.22
272.117	9203.21
272.186	9183.13
272.255	9181.11
272.324	9175.24
272.393	9169.51
272.462	9149.52
272.531	9140.13
272.6	9126.07
272.669	9129.78
272.738	9118.51
272.807	9113.55
272.876	9090.5
272.945	9128.97
273.013	9126.03
273.082	9130.65
273.151	9108.75
273.22	9104.46
273.289	9094.64
273.358	9107.26
273.427	9096.86
273.496	9101.62
273.564	9099.22
273.633	9104.7
273.702	9091.61
273.771	9080.78
273.84	9078.66
273.909	9078.51
273.977	9080.63
274.046	9068.26
274.115	9074.61
274.184	9057.33
274.253	9052.62
274.322	9065.37
274.39	9019.1
274.459	9005.96
274.528	8975.63
274.597	8969.9
274.665	8961.96
274.734	8968.41
274.803	8953.73
274.872	8947.71
274.94	8929.08
275.009	8959.56
275.078	8945.07
275.147	8933.43
275.215	8934.24
275.284	8938.77
275.353	8926.78
275.421	8900.98
275.49	8911.38
275.559	8903.24
275.627	8894.05
275.696	8883.07
275.765	8884.76
275.833	8879.18
275.902	8878.45
275.971	8893.28
276.039	8905.84
276.108	8914.22
276.177	8921.3
276.245	8909.5
276.314	8897.71
276.383	8905.94
276.451	8870.02
276.52	8867.18
276.588	8881.28
276.657	8880.37
276.725	8866.89
276.794	8866.02
276.863	8877.43
276.931	8857.84
277	8862.56
277.068	8872.85
277.137	8891.05
277.205	8884.51
277.274	8909.15
277.342	8917.86
277.411	8889.8
277.48	8871.95
277.548	8857.79
277.617	8845.9
277.685	8844.6
277.754	8854.81
277.822	8842.68
277.89	8851.73
277.959	8849.37
278.027	8824.1
278.096	8815.1
278.164	8845.72
278.233	8840.76
278.301	8833.11
278.37	8840.71
278.438	8826.46
278.507	8827.67
278.575	8799.51
278.643	8796.38
278.712	8773.95
278.78	8759.46
278.849	8771.73
278.917	8793.25
278.985	8785.98
279.054	8792.14
279.122	8804.56
279.191	8799.55
279.259	8798.5
279.327	8772.88
279.396	8787.66
279.464	8787.61
279.532	8794.02
279.601	8788.96
279.669	8781.35
279.737	8790.74
279.806	8788.29
279.874	8792.76
279.942	8791.46
280.011	8786.94
280.079	8796.13
280.147	8814.62
280.215	8820.92
280.284	8816.06
280.352	8792.38
280.42	8801.91
280.488	8791.94
280.557	8782.37
280.625	8790.93
280.693	8797.24
280.761	8801.52
280.83	8788.38
280.898	8803.3
280.966	8783.57
281.034	8747.08
281.102	8732.93
281.171	8728.89
281.239	8742.56
281.307	8734.57
281.375	8719.22
281.443	8748.96
281.512	8740.35
281.58	8741.31
281.648	8724.85
281.716	8729.76
281.784	8729.23
281.852	8726.29
281.92	8730.34
281.989	8743.33
282.057	8718.02
282.125	8756.63
282.193	8752.83
282.261	8752.06
282.329	8747
282.397	8748.4
282.465	8755.95
282.533	8776.84
282.601	8764.42
282.67	8739.35
282.738	8732.17
282.806	8748.54
282.874	8726.35
282.942	8730.63
283.01	8726.39
283.078	8734.33
283.146	8731.4
283.214	8744.49
283.282	8746.56
283.35	8754.79
283.418	8742.37
283.486	8750.51
283.554	8709.44
283.622	8707.13
283.69	8703.04
283.758	8694.42
283.826	8704.58
283.894	8710.88
283.962	8727.83
284.03	8742.51
284.098	8743.13
284.165	8743.61
284.233	8741.4
284.301	8741.5
284.369	8731.87
284.437	8725.32
284.505	8718.63
284.573	8730.43
284.641	8718.97
284.709	8722.34
284.777	8700.58
284.845	8713.1
284.912	8721.14
284.98	8725.47
285.048	8723.35
285.116	8730.81
285.184	8747.61
285.252	8747.08
285.319	8727.4
285.387	8717.86
285.455	8698.66
285.523	8705.11
285.591	8701.6
285.659	8701.4
285.726	8714.01
285.794	8705.59
285.862	8701.94
285.93	8697.99
285.997	8694.57
286.065	8691.54
286.133	8681.82
286.201	8682.64
286.269	8656.55
286.336	8648.85
286.404	8638.31
286.472	8643.6
286.539	8618.43
286.607	8600.1
286.675	8595.76
286.743	8609.96
286.81	8605.2
286.878	8620.6
286.946	8614
287.013	8609.62
287.081	8610.73
287.149	8593.69
287.216	8614.05
287.284	8602.98
287.352	8607.36
287.419	8605.53
287.487	8620.45
287.555	8623.39
287.622	8622.91
287.69	8632.87
287.758	8643.12
287.825	8640.62
287.893	8629.55
287.96	8641.1
288.028	8651.59
288.096	8662.71
288.163	8670.22
288.231	8661.31
288.298	8659.72
288.366	8673.34
288.433	8675.7
288.501	8662.8
288.569	8667.52
288.636	8652.55
288.704	8672.57
288.771	8677.68
288.839	8665.74
288.906	8655.2
288.974	8667.38
289.041	8668.2
289.109	8662.37
289.176	8669.64
289.244	8677.87
289.311	8691.59
289.379	8700.3
289.446	8705.21
289.514	8700.49
289.581	8691.3
289.649	8692.31
289.716	8691.2
289.783	8682.34
289.851	8703.38
289.918	8716.56
289.986	8723.3
290.053	8736.73
290.121	8734.56
290.188	8737.74
290.255	8769.46
290.323	8765.13
290.39	8760.94
290.458	8763.88
290.525	8776.34
290.592	8771.19
290.66	8773.4
290.727	8767.72
290.794	8780.38
290.862	8780.53
290.929	8780.67
290.996	8786.11
291.064	8793.28
291.131	8808.21
291.198	8818.65
291.266	8811.43
291.333	8809.07
291.4	8815.23
291.468	8831.7
291.535	8825.25
291.602	8827.75
291.669	8817.59
291.737	8822.6
291.804	8818.46
291.871	8840.55
291.938	8845.56
292.006	8870.79
292.073	8886.87
292.14	8900.1
292.207	8893.65
292.275	8895.43
292.342	8905.45
292.409	8929.66
292.476	8953.54
292.543	8940.69
292.611	8944.01
292.678	8965.33
292.745	8991.28
292.812	9002.74
292.879	8995.57
292.946	9005.72
293.014	9018.91
293.081	9026.52
293.148	9042.4
293.215	9061.32
293.282	9050.97
293.349	9067.73
293.416	9047.89
293.484	9054.63
293.551	9062.96
293.618	9080.05
293.685	9102.44
293.752	9096.47
293.819	9094.64
293.886	9083.18
293.953	9094.11
294.02	9104.5
294.087	9109.99
294.154	9096.42
294.221	9116.93
294.288	9116.3
294.356	9134.6
294.423	9141.39
294.49	9139.61
294.557	9159.49
294.624	9145.14
294.691	9164.4
294.758	9161.56
294.825	9170.66
294.892	9162.43
294.959	9161.27
295.026	9170.04
295.093	9164.55
295.16	9171.43
295.226	9170.42
295.293	9197.24
295.36	9203.07
295.427	9218.96
295.494	9228.97
295.561	9247.17
295.628	9262.15
295.695	9280.69
295.762	9279.24
295.829	9292.82
295.896	9307.46
295.963	9311.94
296.03	9329.61
296.096	9335.19
296.163	9343.95
296.23	9366.25
296.297	9384.79
296.364	9384.69
296.431	9390.61
296.498	9386.76
296.564	9407.37
296.631	9414.79
296.698	9397.06
296.765	9420.18
296.832	9407.22
296.899	9395.28
296.965	9414.45
297.032	9393.45
297.099	9414.01
297.166	9424.56
297.233	9417.29
297.299	9410.64
297.366	9412.19
297.433	9414.98
297.5	9427.07
297.566	9434.29
297.633	9426.25
297.7	9430
297.767	9433.61
297.833	9439.78
297.9	9437.95
297.967	9424.9
298.033	9433.04
298.1	9465.35
298.167	9455.77
298.234	9457.94
298.3	9471.37
298.367	9462.99
298.434	9469.3
298.5	9453.12
298.567	9449.6
298.634	9451.58
298.7	9471.71
298.767	9474.74
298.834	9485.43
298.9	9478.49
298.967	9464.48
299.033	9476.52
299.1	9487.21
299.167	9500.21
299.233	9495.69
299.3	9516.06
299.366	9531.27
299.433	9551.41
299.5	9520.82
299.566	9520.97
299.633	9542.98
299.699	9551.26
299.766	9545.05
299.832	9552.03
299.899	9566.19
299.965	9570.91
300.032	9571.97
300.099	9573.7
300.165	9573.94
300.232	9571.92
300.298	9573.99
300.365	9596
300.431	9598.41
300.498	9595.13
300.564	9600.77
300.631	9610.01
300.697	9623.64
300.763	9623.5
300.83	9621.33
300.896	9637.85
300.963	9652.78
301.029	9655.43
301.096	9661.06
301.162	9679.46
301.229	9671.71
301.295	9659.42
301.361	9669.15
301.428	9670.26
301.494	9657.11
301.561	9659.86
301.627	9664.14
301.693	9662.41
301.76	9665.25
301.826	9658.41
301.892	9671.8
301.959	9686.49
302.025	9685.96
302.092	9679.7
302.158	9686.2
302.224	9685.38
302.291	9677.34
302.357	9672.96
302.423	9669.35
302.49	9652.44
302.556	9663.81
302.622	9665.06
302.688	9679.03
302.755	9688.76
302.821	9698.97
302.887	9715.1
302.954	9714.86
303.02	9724.93
303.086	9738.56
303.152	9735.43
303.219	9732.78
303.285	9732.01
303.351	9739.52
303.417	9741.01
303.483	9730.56
303.55	9725.89
303.616	9724.83
303.682	9728.4
303.748	9719.68
303.815	9734.32
303.881	9751.18
303.947	9726.37
304.013	9730.18
304.079	9716.55
304.145	9698.25
304.212	9694.97
304.278	9686.16
304.344	9678.84
304.41	9665.69
304.476	9655.62
304.542	9646.28
304.608	9655.14
304.674	9638.24
304.741	9627.01
304.807	9628.94
304.873	9636.84
304.939	9653.98
305.005	9631.25
305.071	9625.42
305.137	9630.1
305.203	9601.2
305.269	9596.82
305.335	9617.19
305.401	9619.84
305.467	9621.62
305.533	9629.18
305.599	9631.93
305.666	9643.24
305.732	9648.25
305.798	9658.03
305.864	9681.82
305.93	9686.06
305.996	9683.27
306.062	9681.05
306.128	9680.28
306.194	9670.7
306.259	9667.18
306.325	9655.96
306.391	9667.9
306.457	9677.05
306.523	9681.34
306.589	9715.78
306.655	9706.29
306.721	9691.36
306.787	9671.52
306.853	9687.46
306.919	9675.23
306.985	9679.42
307.051	9665.64
307.117	9663.86
307.183	9656.97
307.248	9628.41
307.314	9637.37
307.38	9639.01
307.446	9647.97
307.512	9631.35
307.578	9633.04
307.644	9630.63
307.709	9630.58
307.775	9627.5
307.841	9627.3
307.907	9624.51
307.973	9598.93
308.039	9609.87
308.104	9612.85
308.17	9612.56
308.236	9589.3
308.302	9593.2
308.368	9573.79
308.433	9582.61
308.499	9578.03
308.565	9564.26
308.631	9567.63
308.696	9539.22
308.762	9527.13
308.828	9530.65
308.894	9512.93
308.959	9494.34
309.025	9484.18
309.091	9481.05
309.156	9474.11
309.222	9477.68
309.288	9466.84
309.354	9440.5
309.419	9434.34
309.485	9418.11
309.551	9428.56
309.616	9418.49
309.682	9413.15
309.748	9408.77
309.813	9395.19
309.879	9386.66
309.945	9380.36
310.01	9371.74
310.076	9380.93
310.141	9375.88
310.207	9354.16
310.273	9356.85
310.338	9357.14
310.404	9341.06
310.469	9329.22
310.535	9315.59
310.601	9288.38
310.666	9294.69
310.732	9305.96
310.797	9287.8
310.863	9275.91
310.928	9271.86
310.994	9276.34
311.059	9265.51
311.125	9262.47
311.191	9273.5
311.256	9260.26
311.322	9264.93
311.387	9245.63
311.453	9614.81
311.518	9585.87
311.584	9590.59
311.649	9601.33
311.715	9595.16
311.78	9599.35
311.846	9585.1
311.911	9598.58
311.976	9599.79
312.042	9582.69
312.107	9569.55
312.173	9563.72
312.238	9558.38
312.304	9554.38
312.369	9547.69
312.434	9544.51
312.5	9537.44
312.565	9500.6
312.631	9502.14
312.696	9489.82
312.761	9495.64
312.827	9110.82
312.892	9155.26
312.958	9151.4
313.023	9144.52
313.088	9143.89
313.154	9129.74
313.219	9122.33
313.284	9107.78
313.35	9106.97
313.415	9099.22
313.48	9098.73
313.546	9104.37
313.611	9120.88
313.676	9104.75
313.741	9094.35
313.807	9102.54
313.872	9107.5
313.937	9122.08
314.003	9134.65
314.068	9137.39
314.133	9140.23
314.198	9137.73
314.264	9111.39
314.329	9102
314.394	9102.19
314.459	9095.45
314.525	9114.85
314.59	9118.37
314.655	9104.41
314.72	9110.76
314.785	9106.48
314.851	9096.37
314.916	9068.69
314.981	9048.76
315.046	9039.13
315.111	9025.03
315.176	9011.64
315.242	9015.64
315.307	9009.72
315.372	8987.52
315.437	8979.43
315.502	8971.3
315.567	8976.21
315.632	8964.7
315.698	8961.86
315.763	8953.2
315.828	8943.52
315.893	8942.41
315.958	8932.26
316.023	8928.17
316.088	8904.19
316.153	8881.81
316.218	8873.97
316.283	8857.99
316.348	8844.18
316.413	8839.27
316.479	8825.02
316.544	8788.35
316.609	8755.91
316.674	8716.49
316.739	8686.22
316.804	8654.75
316.869	8618.65
316.934	8581.98
316.999	8545.12
317.064	8494.01
317.129	8446.75
317.194	8414.56
317.259	8364.41
317.324	8315.73
317.389	8272.23
317.454	8232.54
317.518	8205.94
317.583	8182.6
317.648	8172.02
317.713	8135.69
317.778	8080.23
317.843	8055.98
317.908	8021.69
317.973	7983.3
318.038	7958.15
318.103	7919.24
318.168	7892.36
318.233	7861.72
318.297	7818.05
318.362	7782.18
318.427	7740.35
318.492	7722.22
318.557	7673.33
318.622	7646.01
318.687	7626.21
318.751	7585.35
318.816	7556.4
318.881	7519.63
318.946	7468.33
319.011	7416.4
319.075	7373.67
319.14	7341.52
319.205	7297.44
319.27	7262.31
319.335	7215.7
319.399	7176.87
319.464	7155.91
319.529	7100.7
319.594	7065
319.658	7035.68
319.723	7000.23
319.788	6979.47
319.853	6924.89
319.917	6898.95
319.982	6846.2
320.047	6809.16
320.112	6789.66
320.176	6736.25
320.241	6706.19
320.306	6675.35
320.37	6634.78
320.435	6603.81
320.5	6577.87
320.564	6537.88
320.629	6501.88
320.694	6477.1
320.758	6431.6
320.823	6384.31
320.888	6355.17
320.952	6303.53
321.017	6259.46
321.082	6220.4
321.146	6182.63
321.211	6148.75
321.275	6105.95
321.34	6063.44
321.405	6016.76
321.469	5965.37
321.534	5924.23
321.598	5870.6
321.663	5840.18
321.727	5814.76
321.792	5761.38
321.857	5716.58
321.921	5678.36
321.986	5633.88
322.05	5571.03
322.115	5540.63
322.179	5493.27
322.244	5439.22
322.308	5405.33
322.373	5357.79
322.437	5316.77
322.502	5293.85
322.566	5247.8
322.631	5212.1
322.695	5173.73
322.76	5130.33
322.824	5094.69
322.889	5054.85
322.953	5011.86
323.018	4946.14
323.082	4876.57
323.146	4830.43
323.211	4777.62
323.275	4734.1
323.34	4690.36
323.404	4657.39
323.468	4610.77
323.533	4565.56
323.597	4520.98
323.662	4474.24
323.726	4440.02
323.79	4390.13
323.855	4320.59
323.919	4272.24
323.983	4229.81
324.048	4164.33
324.112	4336.26
324.177	4207.41
324.241	3992.66
324.305	3782.73
324.37	3573.67
324.434	3375.8
324.498	3334.02
324.562	3283.19
324.627	3221.8
324.691	3166.3
324.755	3101.11
324.82	3023.47
324.884	2951.67
324.948	2882.64
325.012	2785.38
325.077	2660.21
