Data from 20250703_urea_0.1M_MAYP1162681_04-01-04-865.txt Node
Date: Fri Jul 04 04:01:04 BST 2025
User: adleo
Spectrometer: MAYP116268
Trigger mode: 0
Integration Time (sec): 1.000000E0
Scans to average: 1
Electric dark correction enabled: true
Nonlinearity correction enabled: true
Boxcar width: 10
XAxis mode: Wavelengths
Number of Pixels in Spectrum: 2068
>>>>>Begin Spectral Data<<<<<
179.565	1281.81
179.642	1344.97
179.718	1394.35
179.795	1432.75
179.871	1467.09
179.948	1485.16
180.024	1509.04
180.101	1535.64
180.177	1552.03
180.254	1574.02
180.33	1596.58
180.407	1656.03
180.483	1755.66
180.56	1853.21
180.636	1943.46
180.712	1929.72
180.789	1941.89
180.865	1955.11
180.942	1965.28
181.018	1980.74
181.095	1996.96
181.171	2003.14
181.248	2004.33
181.324	2018.41
181.4	2026.92
181.477	2038.19
181.553	2053.5
181.63	2070.91
181.706	2087.46
181.782	2095.02
181.859	2095.88
181.935	2102.63
182.011	2098.16
182.088	2117.24
182.164	2134.75
182.24	2148.35
182.317	2157.05
182.393	2155.29
182.469	2170.56
182.546	2184.46
182.622	2184.93
182.698	2177.6
182.775	2190.74
182.851	2204.15
182.927	2197.35
183.003	2193.74
183.08	2189.03
183.156	2196.73
183.232	2195.02
183.308	2183.41
183.385	2194.78
183.461	2216.19
183.537	2215.86
183.613	2230.37
183.69	2218.81
183.766	2207
183.842	2214.62
183.918	2220.95
183.995	2234.22
184.071	2239.93
184.147	2231.8
184.223	2222.28
184.299	2237.51
184.375	2224.48
184.452	2231.38
184.528	2283.78
184.604	2294.15
184.68	2303.1
184.756	2312.57
184.832	2318.8
184.908	2320.61
184.985	2316.47
185.061	2298.29
185.137	2309.15
185.213	2298.96
185.289	2302.58
185.365	2297.77
185.441	2297.15
185.517	2313.15
185.593	2309.3
185.669	2304.34
185.745	2316.48
185.822	2330.7
185.898	2320.85
185.974	2330.55
186.05	2321.89
186.126	2286.62
186.202	2280.43
186.278	2279.39
186.354	2268.54
186.43	2274.25
186.506	2275.58
186.582	2277.39
186.658	2285.33
186.734	2263.54
186.81	2263.54
186.886	2268.02
186.962	2280.2
187.038	2277.1
187.114	2267.87
187.19	2274.63
187.266	2264.16
187.341	2264.4
187.417	2257.5
187.493	2257.93
187.569	2260.73
187.645	2256.26
187.721	2242.65
187.797	2251.73
187.873	2256.78
187.949	2254.35
188.025	2246.83
188.101	2249.5
188.176	2254.25
188.252	2246.88
188.328	2256.15
188.404	2258.01
188.48	2249.49
188.556	2241.97
188.632	2239.02
188.707	2239.55
188.783	2237.07
188.859	2230.32
188.935	2220.61
189.011	2231.75
189.086	2225.75
189.162	2217.61
189.238	2214.62
189.314	2214.09
189.39	2209
189.465	2199.34
189.541	2210.81
189.617	2198.63
189.693	2189.88
189.768	2194.49
189.844	2219.06
189.92	2210.73
189.996	2219.44
190.071	2231.53
190.147	2232.38
190.223	2243.23
190.298	2238.62
190.374	2225.91
190.45	2241.89
190.526	2253.08
190.601	2243.75
190.677	2243.32
190.753	2273.32
190.828	2278.22
190.904	2293.17
190.98	2307.88
191.055	2320.3
191.131	2314.59
191.207	2335.1
191.282	2349.27
191.358	2336.38
191.433	2324.81
191.509	2337.13
191.585	2334.41
191.66	2337.65
191.736	2345.08
191.811	2337.03
191.887	2353.93
191.963	2376.73
192.038	2378.78
192.114	2374.4
192.189	2380.68
192.265	2381.68
192.34	2356.25
192.416	2354.59
192.491	2349.78
192.567	2351.54
192.642	2355.63
192.718	2354.25
192.793	2342.83
192.869	2334.93
192.944	2338.02
193.02	2345.4
193.095	2351.83
193.171	2360.06
193.246	2359.87
193.322	2357.35
193.397	2356.78
193.473	2338.73
193.548	2322.02
193.624	2328.16
193.699	2330.5
193.775	2349.54
193.85	2348.69
193.925	2357.83
194.001	2356.54
194.076	2348.45
194.152	2336.93
194.227	2325.93
194.302	2319.18
194.378	2321.18
194.453	2320.89
194.529	2335.41
194.604	2319.51
194.679	2311.61
194.755	2289.01
194.83	2300.91
194.905	2300.06
194.981	2309.62
195.056	2304.77
195.131	2310.34
195.207	2308.2
195.282	2296.96
195.357	2273.25
195.433	2288.34
195.508	2274.73
195.583	2280.44
195.659	2296.24
195.734	2304.86
195.809	2306.19
195.884	2316.66
195.96	2318.76
196.035	2333.51
196.11	2327.56
196.185	2342.36
196.261	2345.69
196.336	2377.77
196.411	2362.58
196.486	2367.06
196.561	2362.06
196.637	2370
196.712	2386.39
196.787	2392.48
196.862	2410.52
196.937	2423.23
197.013	2428.66
197.088	2441.03
197.163	2464.75
197.238	2479.8
197.313	2480.52
197.388	2495.66
197.464	2525.76
197.539	2537.14
197.614	2530.29
197.689	2545.24
197.764	2560.39
197.839	2584.1
197.914	2580.1
197.989	2606.59
198.065	2620.35
198.14	2671.2
198.215	2702.5
198.29	2716.99
198.365	2728.43
198.44	2739.57
198.515	2770.93
198.59	2788.42
198.665	2816.05
198.74	2825.06
198.815	2828.4
198.89	2850.12
198.965	2882.64
199.04	2877.11
199.115	2897.07
199.19	2942.06
199.265	2945.92
199.34	2954.35
199.415	2987.88
199.49	3009.47
199.565	3018.24
199.64	3041.46
199.715	3040.31
199.79	3045.37
199.865	3052.09
199.94	3054.67
200.015	3083.56
200.09	3084.61
200.165	3091.19
200.24	3102.21
200.315	3143.64
200.39	3161.62
200.464	3168.63
200.539	3168.78
200.614	3185.42
200.689	3205.74
200.764	3214.04
200.839	3233.4
200.914	3242.65
200.989	3232.96
201.063	3247.99
201.138	3231.07
201.213	3233.74
201.288	3214.66
201.363	3218.43
201.438	3216.23
201.512	3231.11
201.587	3214.65
201.662	3222.62
201.737	3236.17
201.812	3241.56
201.886	3207.04
201.961	3215.73
202.036	3204.14
202.111	3204.1
202.186	3175.59
202.26	3157.56
202.335	3135.57
202.41	3129.13
202.485	3110.91
202.559	3092.27
202.634	3066.04
202.709	3075.29
202.784	3058.21
202.858	3059.12
202.933	3043.48
203.008	3040.48
203.082	3023.41
203.157	3028.8
203.232	2987.19
203.306	2969.87
203.381	2942.02
203.456	2925.81
203.53	2907.01
203.605	2893.19
203.68	2875.45
203.754	2879.22
203.829	2875.02
203.904	2866.35
203.978	2868.35
204.053	2883.7
204.127	2882.22
204.202	2894.33
204.277	2892.61
204.351	2902.44
204.426	2913.17
204.5	2923.89
204.575	2909.78
204.65	2943.46
204.724	2956.68
204.799	2986.93
204.873	3006.25
204.948	3031.48
205.022	3048.16
205.097	3070.83
205.171	3117.04
205.246	3159.08
205.32	3191.46
205.395	3226.24
205.469	3252.57
205.544	3296.3
205.618	3323.03
205.693	3381.35
205.767	3414.19
205.842	3483.57
205.916	3529.59
205.991	3570.71
206.065	3629.36
206.14	3701.44
206.214	3754.26
206.289	3810.8
206.363	3889.49
206.438	3959.91
206.512	4032.95
206.586	4121.47
206.661	4199.06
206.735	4247.91
206.81	4324.43
206.884	4416.92
206.958	4480.82
207.033	4584.39
207.107	4675.8
207.181	4789.17
207.256	4869.28
207.33	4979.21
207.405	5082.25
207.479	5188.5
207.553	5285.3
207.628	5364.15
207.702	5465.98
207.776	5552.79
207.851	5643.68
207.925	5757.12
207.999	5844.7
208.073	5944.17
208.148	6047.19
208.222	6135.24
208.296	6269.61
208.371	6385.14
208.445	6495.36
208.519	6630.06
208.593	6743.82
208.668	6842.45
208.742	6953.65
208.816	7058.36
208.89	7177.65
208.965	7285.24
209.039	7406.29
209.113	7534.25
209.187	7655.59
209.261	7766.5
209.336	7899.12
209.41	8036.33
209.484	8146.02
209.558	8287.74
209.632	8413.82
209.707	8530.31
209.781	8666.97
209.855	8796.29
209.929	8924.21
210.003	9044.06
210.077	9153.19
210.151	9304.34
210.226	9446.39
210.3	9580.81
210.374	9717.89
210.448	9834.93
210.522	9947.16
210.596	10060.74
210.67	10177.6
210.744	10345.09
210.818	10480.02
210.892	10608.46
210.966	10706.32
211.041	10832.99
211.115	10934.76
211.189	11058.74
211.263	11185.18
211.337	11297.22
211.411	11414.09
211.485	11505.47
211.559	11620.22
211.633	11724.65
211.707	11800.9
211.781	11912.49
211.855	11974.86
211.929	12061.47
212.003	12139.55
212.077	12254.85
212.151	12373.82
212.225	12478.22
212.299	12560.27
212.373	12645.4
212.447	12734.33
212.52	12858.22
212.594	12943.74
212.668	13048
212.742	13132.8
212.816	13215.28
212.89	13298.53
212.964	13394.22
213.038	13494.97
213.112	13604.78
213.186	13713.49
213.26	13777.02
213.333	13816.94
213.407	13912.34
213.481	14002.92
213.555	14095.86
213.629	14162.33
213.703	14225.77
213.777	14309.79
213.85	14367.74
213.924	14483.04
213.998	14557.61
214.072	14633.24
214.146	14705.41
214.219	14781.57
214.293	14849.58
214.367	14926.57
214.441	15010.34
214.515	15068.72
214.588	15115.76
214.662	15146.42
214.736	15196.5
214.81	15282.35
214.883	15357.5
214.957	15413.95
215.031	15471.36
215.105	15516.67
215.178	15569.83
215.252	15624.69
215.326	15666.48
215.4	15716.85
215.473	15733.43
215.547	15789.29
215.621	15836.28
215.694	15899.76
215.768	15930.03
215.842	15974.37
215.915	16021.99
215.989	16051.54
216.063	16094.05
216.136	16152.32
216.21	16207.84
216.284	16274.74
216.357	16330.22
216.431	16384.1
216.504	16448.35
216.578	16536.4
216.652	16598.96
216.725	16656.41
216.799	16716.7
216.873	16765.53
216.946	16824.13
217.02	16874.35
217.093	16921.73
217.167	16951.71
217.24	16990.41
217.314	17037.93
217.387	17091.42
217.461	17138.56
217.535	17207.09
217.608	17255.91
217.682	17302.9
217.755	17368.1
217.829	17402.7
217.902	17449.45
217.976	17502.66
218.049	17538.56
218.123	17561.45
218.196	17621.35
218.27	17660.82
218.343	17694.27
218.417	17756.44
218.49	17801.54
218.563	17859.86
218.637	17900.24
218.71	17969.63
218.784	18020.72
218.857	18079.9
218.931	18130.55
219.004	18185.63
219.077	18235.79
219.151	18282.83
219.224	18338.68
219.298	18384.51
219.371	18441.47
219.444	18472.17
219.518	18520.89
219.591	18572.16
219.665	18646.04
219.738	18689.94
219.811	18727.19
219.885	18780.49
219.958	18823.38
220.031	18869.3
220.105	18925.83
220.178	18977.73
220.251	19011.99
220.325	19056.42
220.398	19107.26
220.471	19155.45
220.544	19204.12
220.618	19232.56
220.691	19279.06
220.764	19305.03
220.838	19353.37
220.911	19387.25
220.984	19462.04
221.057	19507.19
221.131	19556.78
221.204	19566.56
221.277	19628.73
221.35	19698.99
221.424	19735.28
221.497	19769.73
221.57	19807.13
221.643	19847.08
221.716	19894.88
221.79	19927.94
221.863	19962.5
221.936	19990.78
222.009	20016.95
222.082	20048.95
222.155	20079.02
222.229	20128.61
222.302	20176.99
222.375	20199.6
222.448	20245.14
222.521	20258.25
222.594	20278.82
222.667	20294.34
222.74	20331.35
222.814	20351.06
222.887	20378.68
222.96	20417.04
223.033	20454.05
223.106	20479.55
223.179	20505.09
223.252	20521.96
223.325	20552.17
223.398	20575.26
223.471	20603.98
223.544	20640.66
223.617	20671.45
223.69	20703.93
223.763	20703.45
223.837	20728.76
223.91	20752.27
223.983	20756.03
224.056	20772.71
224.129	20804.18
224.202	20837.82
224.275	20852.28
224.348	20860.04
224.42	20861.67
224.493	20859.26
224.566	20867.02
224.639	20885.48
224.712	20892.47
224.785	20907.89
224.858	20920.42
224.931	20932.71
225.004	20935.8
225.077	20943.22
225.15	20924.62
225.223	20929.1
225.296	20968.86
225.369	20956.28
225.442	20962.26
225.514	20980.91
225.587	20996.04
225.66	21011.03
225.733	21022.31
225.806	21041.11
225.879	21048.58
225.952	21041.98
226.025	21062.94
226.097	21090.51
226.17	21103.67
226.243	21096.44
226.316	21099.14
226.389	21100.63
226.461	21116.05
226.534	21140.73
226.607	21148.92
226.68	21178.95
226.753	21186.37
226.825	21172.78
226.898	21205.75
226.971	21213.31
227.044	21219.92
227.117	21220.79
227.189	21218.52
227.262	21231.2
227.335	21242.67
227.407	21241.9
227.48	21263.01
227.553	21269.32
227.626	21267.54
227.698	21271.44
227.771	21268.55
227.844	21266.62
227.916	21282.57
227.989	21266.04
228.062	21251.82
228.134	21274.72
228.207	21273.51
228.28	21277.18
228.352	21273.23
228.425	21259.92
228.498	21265.51
228.57	21256.74
228.643	21268.65
228.716	21266.28
228.788	21258.91
228.861	21243.68
228.934	21260.6
229.006	21257.99
229.079	21257.66
229.151	21245.85
229.224	21231.97
229.296	21252.07
229.369	21281.76
229.442	21297.08
229.514	21297.18
229.587	21310.24
229.659	21284.55
229.732	21287.35
229.804	21295.78
229.877	21326.68
229.949	21341.14
230.022	21353.09
230.094	21344.75
230.167	21339.11
230.239	21327.79
230.312	21322.44
230.384	21340.56
230.457	21327.74
230.529	21324.32
230.602	21321.57
230.674	21322.2
230.747	21330.78
230.819	21331.64
230.892	21285.66
230.964	21261.61
231.037	21257.95
231.109	21246.57
231.181	21254.62
231.254	21234.09
231.326	21219.54
231.399	21197.89
231.471	21180.35
231.544	21147.33
231.616	21153.65
231.688	21158.13
231.761	21147.57
231.833	21142.13
231.905	21099.76
231.978	21096
232.05	21083.04
232.122	21067.66
232.195	21048.48
232.267	21052.15
232.339	21028.1
232.412	21038.07
232.484	21017.3
232.556	21004.19
232.629	21021.16
232.701	21009.54
232.773	21006.74
232.846	20990.02
232.918	20977.54
232.99	20968.86
233.062	20962.45
233.135	20952.24
233.207	20914.88
233.279	20904.76
233.351	20881.24
233.424	20868.23
233.496	20838.4
233.568	20847.41
233.64	20827.6
233.713	20810.64
233.785	20782.44
233.857	20771.36
233.929	20740.76
234.001	20755.89
234.074	20748.03
234.146	20697.96
234.218	20676.85
234.29	20642.83
234.362	20614.15
234.434	20574.87
234.507	20538.39
234.579	20504.85
234.651	20473.43
234.723	20463.35
234.795	20444.75
234.867	20428.9
234.939	20419.69
235.012	20406.29
235.084	20376.9
235.156	20359.26
235.228	20324.51
235.3	20295.31
235.372	20274.73
235.444	20254.82
235.516	20199.93
235.588	20183.79
235.66	20163.69
235.732	20132.22
235.804	20179.84
235.876	20166.3
235.948	20156.51
236.02	20125.58
236.092	20092.71
236.164	20066.69
236.236	20030.11
236.308	20003.22
236.38	19970.21
236.452	19928.96
236.524	19898.36
236.596	19894.31
236.668	19866.79
236.74	19842.94
236.812	19814.07
236.884	19793.01
236.956	19778.46
237.028	19750.7
237.1	19713.64
237.172	19704.44
237.244	19695.04
237.316	19613.59
237.388	19584.34
237.46	19544.2
237.532	19529.55
237.604	19502.71
237.675	19496.4
237.747	19479.72
237.819	19443.92
237.891	19419.44
237.963	19388.35
238.035	19355.68
238.107	19276.12
238.178	19263.11
238.25	19237.81
238.322	19234.97
238.394	19182.82
238.466	19139.36
238.538	19107.02
238.609	19072.85
238.681	19015.56
238.753	18961.87
238.825	18931.42
238.897	18902.84
238.968	18895.85
239.04	18858.6
239.112	18855.28
239.184	18809.74
239.255	18772.44
239.327	18743.53
239.399	18712.49
239.471	18694.23
239.542	18673.55
239.614	18668.83
239.686	18607
239.758	18591.1
239.829	18543.25
239.901	18524.21
239.973	18495.83
240.044	18465.95
240.116	18441.37
240.188	18421.04
240.259	18397.04
240.331	18360.08
240.403	18330.15
240.474	18277.87
240.546	18245.14
240.618	18188.52
240.689	18147.51
240.761	18112.23
240.833	18101.54
240.904	18062.21
240.976	18032.19
241.048	17995.32
241.119	17963.13
241.191	17941.4
241.262	17923.66
241.334	17889.54
241.405	17863.76
241.477	17826.07
241.549	17794.36
241.62	17753.88
241.692	17715.76
241.763	17697.26
241.835	17673.89
241.906	17634.66
241.978	17584.83
242.049	17564.97
242.121	17544.92
242.192	17524.78
242.264	17477.64
242.335	17420.63
242.407	17402.37
242.478	17361.84
242.55	17338.32
242.621	17290.85
242.693	17256.49
242.764	17212.97
242.836	17170.8
242.907	17133.84
242.979	17103.18
243.05	17076.58
243.122	17051.47
243.193	17015.42
243.264	16954.31
243.336	16910.99
243.407	16889.3
243.479	16879.22
243.55	16845.01
243.622	16819.99
243.693	16786.06
243.764	16782.55
243.836	16747.46
243.907	16709.72
243.978	16674.88
244.05	16640.13
244.121	16594.53
244.192	16569.95
244.264	16520.79
244.335	16495.44
244.407	16441.03
244.478	16414.33
244.549	16382.13
244.62	16338.46
244.692	16307.13
244.763	16283.66
244.834	16247.22
244.906	16212.86
244.977	16183.17
245.048	16164.13
245.119	16121.96
245.191	16080.61
245.262	16018.72
245.333	16000.35
245.405	15962.66
245.476	15932.73
245.547	15898.41
245.618	15879.13
245.689	15851.66
245.761	15824.19
245.832	15791.65
245.903	15781.87
245.974	15757.57
246.045	15721.67
246.117	15702.67
246.188	15657.12
246.259	15610.85
246.33	15573.54
246.401	15529.92
246.473	15483.41
246.544	15441.52
246.615	15413.03
246.686	15381.51
246.757	15371.1
246.828	15328.58
246.899	15313.98
246.97	15270.65
247.042	15229.43
247.113	15202.15
247.184	15186.63
247.255	15149.75
247.326	15117.41
247.397	15076.78
247.468	15031.85
247.539	14990.15
247.61	14946.1
247.681	14925.56
247.752	14918.09
247.823	14882.71
247.894	14862.75
247.965	14818.64
248.037	14788.81
248.108	14749.38
248.179	14714.04
248.25	14675.72
248.321	14655.09
248.392	14616.14
248.463	14613.83
248.534	14588.52
248.605	14570.88
248.675	14543.21
248.746	14524.7
248.817	14503.39
248.888	14481.46
248.959	14451.62
249.03	14440.87
249.101	14416.76
249.172	14387.94
249.243	14336.45
249.314	14326.14
249.385	14292.25
249.456	14283.48
249.527	14254.31
249.598	14229.92
249.669	14209.62
249.739	14188.03
249.81	14159.49
249.881	14113.16
249.952	14084.77
250.023	14058.6
250.094	14005.95
250.165	13959.97
250.235	13928.25
250.306	13900.14
250.377	13866.54
250.448	13831.98
250.519	13783.48
250.59	13778.42
250.66	13753.02
250.731	13742.89
250.802	13713.05
250.873	13695.7
250.944	13668.46
251.014	13632.69
251.085	13639.01
251.156	13615.05
251.227	13605.89
251.297	13598.56
251.368	13584.1
251.439	13570.41
251.51	13554.36
251.58	13532.18
251.651	13503.26
251.722	13490.97
251.792	13453.94
251.863	13424.25
251.934	13425.16
252.005	13437.07
252.075	13406.36
252.146	13387.85
252.217	13377.87
252.287	13367.27
252.358	13343.12
252.429	13340.75
252.499	13311.69
252.57	13287.58
252.641	13270.52
252.711	13243.52
252.782	13198.35
252.852	13198.64
252.923	13169.62
252.994	13149.28
253.064	13139.11
253.135	13106.71
253.205	13075.38
253.276	13074.46
253.347	13068.92
253.417	13033.58
253.488	13000.66
253.558	12968.94
253.629	12948.74
253.699	12927.63
253.77	12911.14
253.841	12886.46
253.911	12867.66
253.982	12851.41
254.052	12835.36
254.123	12817.81
254.193	12797.81
254.264	12822.88
254.334	12792.17
254.405	12759.58
254.475	12725.79
254.546	12703.28
254.616	12705.4
254.687	12691.85
254.757	12673.29
254.827	12650.88
254.898	12634.87
254.968	12615.74
255.039	12597.37
255.109	12582.43
255.18	12557.31
255.25	12511.86
255.321	12496.19
255.391	12456.04
255.461	12463.94
255.532	12415.88
255.602	12389.9
255.673	12340.54
255.743	12300.43
255.813	12260.38
255.884	12248.62
255.954	12242.78
256.024	12236.32
256.095	12209.47
256.165	12171.97
256.235	12154.81
256.306	12128.01
256.376	12119
256.446	12098.32
256.517	12078.17
256.587	12066.7
256.657	12047.32
256.728	12031.66
256.798	12017.63
256.868	11992.81
256.938	11958.82
257.009	11959.11
257.079	11947.79
257.149	11966.83
257.219	11927.88
257.29	11914.62
257.36	11879.34
257.43	11868.5
257.5	11827.33
257.571	11802.03
257.641	11795.14
257.711	11763.71
257.781	11756.91
257.852	11743.08
257.922	11701.1
257.992	11683.75
258.062	11655.55
258.132	11646.3
258.202	11623.89
258.273	11599.93
258.343	11604.61
258.413	11579.88
258.483	11548.41
258.553	11518.43
258.623	11484.45
258.693	11475.82
258.764	11471.15
258.834	11469.22
258.904	11446.13
258.974	11421.17
259.044	11400.25
259.114	11383.39
259.184	11363.77
259.254	11339.96
259.324	11302.22
259.394	11296.49
259.464	11293.31
259.535	11282.42
259.605	11249.74
259.675	11228.25
259.745	11215.67
259.815	11179.04
259.885	11147.04
259.955	11160.15
260.025	11129.12
260.095	11106.47
260.165	11093.7
260.235	11092.93
260.305	11063.15
260.375	11037.99
260.445	11052.11
260.515	11055.92
260.585	11052.93
260.655	11041.84
260.725	11041.55
260.795	11035
260.865	11044.11
260.934	11019.53
261.004	11013.17
261.074	11003.72
261.144	11004.5
261.214	11000.01
261.284	10997.07
261.354	11003.39
261.424	10974.52
261.494	10980.4
261.564	10973.75
261.634	10963.72
261.703	10926.71
261.773	10917.22
261.843	10911.97
261.913	10887.97
261.983	10846.24
262.053	10831.98
262.123	10815.55
262.192	10780.27
262.262	10767.79
262.332	10735.75
262.402	10733
262.472	10714.55
262.541	10676.72
262.611	10664.68
262.681	10637.07
262.751	10618.18
262.821	10600.11
262.89	10575.82
262.96	10567.63
263.03	10566.48
263.1	10553.95
263.169	10542.05
263.239	10536.02
263.309	10534.15
263.379	10527.54
263.448	10522.2
263.518	10511.84
263.588	10494.3
263.657	10500.18
263.727	10502.25
263.797	10487.41
263.867	10462.26
263.936	10429.55
264.006	10430.99
264.076	10416.54
264.145	10402.57
264.215	10384.45
264.285	10379.59
264.354	10338.64
264.424	10315.85
264.494	10286.75
264.563	10263.33
264.633	10269.69
264.702	10256.54
264.772	10219.97
264.842	10203.16
264.911	10197.19
264.981	10167.36
265.05	10153.54
265.12	10130.65
265.19	10112.35
265.259	10107.62
265.329	10102.33
265.398	10090.14
265.468	10103.34
265.537	10085.56
265.607	10080.8
265.676	10082.29
265.746	10061.48
265.815	10068.9
265.885	10051.99
265.955	10031.9
266.024	10016.73
266.094	9975.16
266.163	9977.33
266.232	9977.47
266.302	9958.59
266.371	9945.97
266.441	9939.51
266.51	9934.41
266.58	9914.95
266.649	9898.71
266.719	9897.17
266.788	9886.62
266.858	9900.98
266.927	9858.69
266.996	9850.79
267.066	9841.06
267.135	9805.94
267.205	9810.38
267.274	9794.91
267.343	9802.24
267.413	9786.34
267.482	9791.26
267.552	9801.08
267.621	9773.96
267.69	9749.74
267.76	9737.89
267.829	9736.06
267.898	9724.64
267.968	9700.71
268.037	9694.35
268.106	9686.89
268.176	9664.3
268.245	9648.79
268.314	9624.61
268.384	9625.43
268.453	9616.28
268.522	9605.01
268.592	9609.1
268.661	9584.05
268.73	9586.37
268.799	9566.77
268.869	9577.5
268.938	9546.01
269.007	9524.53
269.076	9516.34
269.146	9514.7
269.215	9510.37
269.284	9509.55
269.353	9491.49
269.422	9479.75
269.492	9466.02
269.561	9422.01
269.63	9417.15
269.699	9407.95
269.768	9397.64
269.838	9390.66
269.907	9390.28
269.976	9360.66
270.045	9326.91
270.114	9326.19
270.183	9303.7
270.253	9292
270.322	9258.2
270.391	9252.18
270.46	9254.45
270.529	9250.79
270.598	9250.11
270.667	9240.63
270.736	9219
270.806	9209.95
270.875	9214.67
270.944	9206.34
271.013	9233.88
271.082	9219
271.151	9212.98
271.22	9188.33
271.289	9177.02
271.358	9158.14
271.427	9159.54
271.496	9161.75
271.565	9145.38
271.634	9145
271.703	9149.52
271.772	9158.19
271.841	9141.53
271.91	9125.16
271.979	9116.88
272.048	9089.63
272.117	9091.99
272.186	9075.38
272.255	9079.09
272.324	9079.09
272.393	9074.22
272.462	9058.19
272.531	9051.74
272.6	9039.22
272.669	9043.89
272.738	9029.4
272.807	9028.49
272.876	9001.92
272.945	9027.68
273.013	9027.19
273.082	9028.45
273.151	9005.63
273.22	9004.81
273.289	8999.51
273.358	9001.78
273.427	8988.97
273.496	8988.1
273.564	8983.24
273.633	8984.3
273.702	8962.3
273.771	8949.78
273.84	8939.77
273.909	8936.74
273.977	8937.61
274.046	8928.22
274.115	8931.49
274.184	8916.33
274.253	8906.8
274.322	8923.45
274.39	8885.04
274.459	8870.11
274.528	8844.31
274.597	8836.95
274.665	8831.94
274.734	8838.82
274.803	8824.86
274.872	8815.14
274.94	8804.02
275.009	8827.23
275.078	8818.09
275.147	8816.07
275.215	8812.07
275.284	8819.72
275.353	8808.27
275.421	8779.96
275.49	8795.42
275.559	8784.97
275.627	8781.12
275.696	8775.11
275.765	8775.06
275.833	8771.74
275.902	8775.97
275.971	8787.43
276.039	8803.07
276.108	8799.46
276.177	8798.59
276.245	8791.86
276.314	8786.03
276.383	8794.5
276.451	8756.47
276.52	8754.35
276.588	8772.54
276.657	8769.9
276.725	8756.66
276.794	8747.71
276.863	8759.64
276.931	8733.89
277	8744.63
277.068	8759.93
277.137	8775.38
277.205	8773.22
277.274	8791.12
277.342	8796.7
277.411	8773.75
277.48	8762.53
277.548	8751.94
277.617	8753.77
277.685	8747.32
277.754	8755.36
277.822	8746.75
277.89	8765.81
277.959	8755.32
278.027	8731.2
278.096	8725.28
278.164	8757.34
278.233	8752.67
278.301	8739.73
278.37	8752.92
278.438	8735.59
278.507	8728.37
278.575	8704.16
278.643	8694.2
278.712	8678.22
278.78	8663.58
278.849	8669.6
278.917	8677.54
278.985	8676.72
279.054	8678.02
279.122	8692.8
279.191	8691.26
279.259	8685.48
279.327	8658.67
279.396	8677.1
279.464	8679.75
279.532	8685.28
279.601	8682.93
279.669	8684.95
279.737	8701.89
279.806	8701.5
279.874	8711.13
279.942	8717.48
280.011	8711.76
280.079	8720.03
280.147	8730.43
280.215	8739.28
280.284	8736.69
280.352	8719.6
280.42	8729.27
280.488	8714.93
280.557	8705.59
280.625	8705.88
280.693	8706.36
280.761	8705.5
280.83	8688.7
280.898	8695.92
280.966	8674.22
281.034	8643.94
281.102	8622.77
281.171	8616.27
281.239	8624.6
281.307	8619.98
281.375	8607.18
281.443	8631.48
281.512	8631.1
281.58	8640.92
281.648	8620.85
281.716	8622.05
281.784	8621.47
281.852	8609.05
281.92	8607.66
281.989	8615.07
282.057	8601.11
282.125	8644.2
282.193	8640.01
282.261	8641.89
282.329	8644.1
282.397	8654.5
282.465	8652.76
282.533	8676.44
282.601	8662.24
282.67	8632.3
282.738	8620.22
282.806	8626.19
282.874	8610.36
282.942	8615.46
283.01	8600.25
283.078	8613.39
283.146	8608
283.214	8622.05
283.282	8624.17
283.35	8638.22
283.418	8628.79
283.486	8632.59
283.554	8591.48
283.622	8593.11
283.69	8590.03
283.758	8578.1
283.826	8578.63
283.894	8588.01
283.962	8606.5
284.03	8624.54
284.098	8628.58
284.165	8616.36
284.233	8618.14
284.301	8614.1
284.369	8603.42
284.437	8600.72
284.505	8587.01
284.573	8602.45
284.641	8586.62
284.709	8599.18
284.777	8581.57
284.845	8591.34
284.912	8595.48
284.98	8595.76
285.048	8590.76
285.116	8596.78
285.184	8605.63
285.252	8605.2
285.319	8586.96
285.387	8572.61
285.455	8556.97
285.523	8564.67
285.591	8567.95
285.659	8570.45
285.726	8579.45
285.794	8566.84
285.862	8564.05
285.93	8566.98
285.997	8562.65
286.065	8555.77
286.133	8543.64
286.201	8539.94
286.269	8523.72
286.336	8517.17
286.404	8510.39
286.472	8525.5
286.539	8502.89
286.607	8488.01
286.675	8489.27
286.743	8502.45
286.81	8500.43
286.878	8514.87
286.946	8505.82
287.013	8504.33
287.081	8500.82
287.149	8484.84
287.216	8500.24
287.284	8492.39
287.352	8495.95
287.419	8492.63
287.487	8514.19
287.555	8517.51
287.622	8522.09
287.69	8531.28
287.758	8541.38
287.825	8538.69
287.893	8524.64
287.96	8531.18
288.028	8544.46
288.096	8546.34
288.163	8547.54
288.231	8538.54
288.298	8535.75
288.366	8543.93
288.433	8544.75
288.501	8538.3
288.569	8546.43
288.636	8539.17
288.704	8557.69
288.771	8566.84
288.839	8557.5
288.906	8549.03
288.974	8554.66
289.041	8549.85
289.109	8540.47
289.176	8550.58
289.244	8562.7
289.311	8578.1
289.379	8594.42
289.446	8595.19
289.514	8600.19
289.581	8594.32
289.649	8596.63
289.716	8592.64
289.783	8593.36
289.851	8613.52
289.918	8617.71
289.986	8625.89
290.053	8628.68
290.121	8625.65
290.188	8624.44
290.255	8655.1
290.323	8649.52
290.39	8647.4
290.458	8653.37
290.525	8671.13
290.592	8662.61
290.66	8662.13
290.727	8653.22
290.794	8663.33
290.862	8661.5
290.929	8660.83
290.996	8665.69
291.064	8673.39
291.131	8688.69
291.198	8696.78
291.266	8696.01
291.333	8692.06
291.4	8697.5
291.468	8718.97
291.535	8719.84
291.602	8719.31
291.669	8709.97
291.737	8716.03
291.804	8714.16
291.871	8729.89
291.938	8734.95
292.006	8768.46
292.073	8778.47
292.14	8792.91
292.207	8784.19
292.275	8785.01
292.342	8791.66
292.409	8818.71
292.476	8845.33
292.543	8839.94
292.611	8843.98
292.678	8861.84
292.745	8887.69
292.812	8896.59
292.879	8885.42
292.946	8882.87
293.014	8899.05
293.081	8909.11
293.148	8928.07
293.215	8942.08
293.282	8935.97
293.349	8939.87
293.416	8916.42
293.484	8935.53
293.551	8939.38
293.618	8959.41
293.685	8988.53
293.752	8987.71
293.819	8985.26
293.886	8971.44
293.953	8975.58
294.02	8986.7
294.087	8992.04
294.154	8985.16
294.221	8999.12
294.288	9010
294.356	9032
294.423	9041.53
294.49	9032.58
294.557	9041.3
294.624	9038.84
294.691	9063.68
294.758	9070.18
294.825	9075.57
294.892	9057.04
294.959	9061.03
295.026	9059.83
295.093	9051.21
295.16	9053.33
295.226	9051.16
295.293	9081.3
295.36	9088
295.427	9099.89
295.494	9109.71
295.561	9116.93
295.628	9141.2
295.695	9151.6
295.762	9154.93
295.829	9165.23
295.896	9183.14
295.963	9189.3
296.03	9197.97
296.096	9201.87
296.163	9212.51
296.23	9229.07
296.297	9250.88
296.364	9246.84
296.431	9260.65
296.498	9261.38
296.564	9287.76
296.631	9293.97
296.698	9273.17
296.765	9296.04
296.832	9286.99
296.899	9276.11
296.965	9303.07
297.032	9281.88
297.099	9303.94
297.166	9310.63
297.233	9302.11
297.299	9300.13
297.366	9302.2
297.433	9308.12
297.5	9316.5
297.566	9315.01
297.633	9307.16
297.7	9305.28
297.767	9303.41
297.833	9308.32
297.9	9310.58
297.967	9291.42
298.033	9306.68
298.1	9340.39
298.167	9329.41
298.234	9332.16
298.3	9342.99
298.367	9333.36
298.434	9339.43
298.5	9326.38
298.567	9326.81
298.634	9326.95
298.7	9342.94
298.767	9351.03
298.834	9361.72
298.9	9355.99
298.967	9350.69
299.033	9362.93
299.1	9379.63
299.167	9394.61
299.233	9389.94
299.3	9403.23
299.366	9422.82
299.433	9433.85
299.5	9401.97
299.566	9406.11
299.633	9426.1
299.699	9437.85
299.766	9434
299.832	9444.64
299.899	9454.42
299.965	9458.17
300.032	9453.6
300.099	9457.98
300.165	9454.32
300.232	9451.04
300.298	9448.2
300.365	9463.08
300.431	9469.63
300.498	9470.16
300.564	9477.34
300.631	9486.15
300.697	9501.95
300.763	9501.66
300.83	9494.77
300.896	9513.07
300.963	9528.33
301.029	9526.17
301.096	9529.2
301.162	9544.13
301.229	9536.38
301.295	9529.54
301.361	9541.96
301.428	9554.14
301.494	9534.84
301.561	9542.88
301.627	9544.56
301.693	9551.64
301.76	9554.82
301.826	9543.98
301.892	9552.51
301.959	9563.78
302.025	9566.81
302.092	9565.32
302.158	9573.31
302.224	9578.66
302.291	9569.08
302.357	9563.06
302.423	9559.54
302.49	9548.13
302.556	9560.99
302.622	9558.68
302.688	9563.88
302.755	9575.53
302.821	9576.45
302.887	9597.06
302.954	9592.34
303.02	9607.75
303.086	9618.25
303.152	9616.76
303.219	9616.95
303.285	9616.32
303.351	9621.38
303.417	9618.97
303.483	9603.32
303.55	9594.6
303.616	9596.63
303.682	9593.98
303.748	9585.74
303.815	9599.66
303.881	9613.19
303.947	9598.46
304.013	9603.22
304.079	9594.17
304.145	9572.3
304.212	9570.76
304.278	9562.77
304.344	9562.72
304.41	9542.4
304.476	9533.15
304.542	9527.13
304.608	9538.26
304.674	9527.27
304.741	9524.53
304.807	9534.79
304.873	9533.3
304.939	9548.22
305.005	9523.9
305.071	9520.53
305.137	9523.13
305.203	9498.48
305.269	9495.54
305.335	9511.39
305.401	9507.2
305.467	9506.33
305.533	9515.33
305.599	9525.25
305.666	9531.42
305.732	9527.95
305.798	9543.31
305.864	9570.67
305.93	9580.01
305.996	9578.81
306.062	9578.38
306.128	9572.84
306.194	9552.13
306.259	9560.12
306.325	9550.73
306.391	9567.49
306.457	9582.61
306.523	9584.15
306.589	9611.89
306.655	9603.22
306.721	9585.31
306.787	9573.51
306.853	9586.51
306.919	9571.92
306.985	9564.41
307.051	9560.89
307.117	9557.42
307.183	9552.42
307.248	9515.43
307.314	9519.47
307.38	9519.14
307.446	9520.87
307.512	9511.33
307.578	9518.8
307.644	9512.01
307.709	9514.08
307.775	9507.96
307.841	9502.42
307.907	9504.35
307.973	9481.57
308.039	9480.13
308.104	9487.4
308.17	9491.92
308.236	9482.53
308.302	9487.73
308.368	9477.67
308.433	9472.71
308.499	9469
308.565	9453.88
308.631	9460.05
308.696	9434.28
308.762	9419.21
308.828	9418.01
308.894	9398.94
308.959	9376.31
309.025	9367.5
309.091	9363.98
309.156	9356.08
309.222	9356.37
309.288	9347.08
309.354	9324.26
309.419	9321.9
309.485	9301.62
309.551	9309.33
309.616	9295.03
309.682	9286.89
309.748	9278.42
309.813	9276.39
309.879	9261.76
309.945	9251.6
310.01	9248.23
310.076	9249.62
310.141	9244.86
310.207	9230.27
310.273	9237.25
310.338	9244.9
310.404	9230.8
310.469	9217.27
310.535	9212.07
310.601	9189.19
310.666	9190.25
310.732	9207.39
310.797	9195.79
310.863	9186.35
310.928	9174.6
310.994	9173.45
311.059	9169.69
311.125	9174.84
311.191	9185.63
311.256	9180.58
311.322	9186.64
311.387	9166.04
311.453	9525.33
311.518	9505.11
311.584	9503.81
311.649	9508.96
311.715	9493.46
311.78	9496.69
311.846	9488.26
311.911	9493.89
311.976	9498.47
312.042	9484.26
312.107	9460.82
312.173	9454.27
312.238	9447.39
312.304	9447.24
312.369	9441.22
312.434	9428.66
312.5	9417.2
312.565	9381.76
312.631	9383.88
312.696	9378.87
312.761	9382.87
312.827	9017.99
312.892	9055.4
312.958	9052.75
313.023	9047.02
313.088	9053.43
313.154	9038.89
313.219	9033.4
313.284	9019.05
313.35	9015.54
313.415	9007.74
313.48	9005.77
313.546	9013.33
313.611	9022.95
313.676	9006.97
313.741	8993.68
313.807	9000.95
313.872	9000.38
313.937	9007.4
314.003	9023.87
314.068	9022.14
314.133	9022.76
314.198	9005.82
314.264	8986.41
314.329	8978.13
314.394	8974.95
314.459	8963.84
314.525	8978.18
314.59	8970.53
314.655	8961.38
314.72	8963.11
314.785	8960.56
314.851	8958.35
314.916	8934.37
314.981	8912.67
315.046	8906.55
315.111	8903.33
315.176	8894.04
315.242	8898.37
315.307	8895.05
315.372	8867.32
315.437	8852.92
315.502	8842.38
315.567	8861.01
315.632	8843.73
315.698	8843.73
315.763	8843.59
315.828	8838.63
315.893	8840.46
315.958	8839.64
316.023	8823.85
316.088	8807.2
316.153	8783.95
316.218	8775.29
316.283	8758.54
316.348	8750.46
316.413	8747.38
316.479	8730.2
316.544	8695.74
316.609	8666
316.674	8633.85
316.739	8595.99
316.804	8572.5
316.869	8541.9
316.934	8494.35
316.999	8461.87
317.064	8412.36
317.129	8365
317.194	8329.78
317.259	8284.35
317.324	8226.63
317.389	8193.1
317.454	8155.57
317.518	8127.72
317.583	8105.54
317.648	8079.37
317.713	8041.56
317.778	7978.31
317.843	7953.39
317.908	7916.84
317.973	7881.25
318.038	7849.51
318.103	7821.91
318.168	7783.96
318.233	7753.86
318.297	7706.93
318.362	7670.72
318.427	7632.21
318.492	7608.02
318.557	7563.94
318.622	7531.68
318.687	7514.81
318.751	7470.97
318.816	7436.64
318.881	7401.17
318.946	7342.57
319.011	7299.7
319.075	7262.45
319.14	7228.72
319.205	7182.53
319.27	7153.61
319.335	7107.67
319.399	7071.38
319.464	7043.18
319.529	6994.61
319.594	6958.62
319.658	6933.59
319.723	6900.39
319.788	6871.86
319.853	6818
319.917	6790.87
319.982	6735.68
320.047	6693.32
320.112	6671.52
320.176	6623.11
320.241	6593.33
320.306	6570.04
320.37	6529.67
320.435	6498.94
320.5	6477.62
320.564	6440.75
320.629	6394.34
320.694	6361.89
320.758	6320.75
320.823	6275.3
320.888	6250.58
320.952	6200.91
321.017	6160.79
321.082	6116.07
321.146	6081.42
321.211	6047.5
321.275	6001.54
321.34	5959.43
321.405	5925.32
321.469	5875.29
321.534	5836.26
321.598	5783.5
321.663	5754.47
321.727	5724.69
321.792	5674.34
321.857	5626.91
321.921	5586.25
321.986	5547.48
322.05	5490.49
322.115	5448.6
322.179	5408.05
322.244	5351.51
322.308	5320.12
322.373	5273.16
322.437	5233.34
322.502	5207.17
322.566	5164.28
322.631	5132.04
322.695	5098.23
322.76	5051.67
322.824	5020.83
322.889	4979.12
322.953	4934.36
323.018	4864.11
323.082	4803.98
323.146	4755.31
323.211	4706.86
323.275	4667.61
323.34	4627.12
323.404	4594.64
323.468	4554.92
323.533	4512.77
323.597	4469.35
323.662	4417.68
323.726	4381.13
323.79	4335.79
323.855	4268.94
323.919	4216.82
323.983	4172.48
324.048	4101.67
324.112	4229.74
324.177	4099.38
324.241	3886.54
324.305	3680.4
324.37	3477.12
324.434	3280.35
324.498	3236.12
324.562	3182.48
324.627	3116.97
324.691	3054.61
324.755	2987.86
324.82	2906.64
324.884	2825.16
324.948	2750.2
325.012	2648.29
325.077	2522.83
