Data from 20250703_urea_0.1M_MAYP1162681_06-41-05-117.txt Node
Date: Fri Jul 04 06:41:05 BST 2025
User: adleo
Spectrometer: MAYP116268
Trigger mode: 0
Integration Time (sec): 1.000000E0
Scans to average: 1
Electric dark correction enabled: true
Nonlinearity correction enabled: true
Boxcar width: 10
XAxis mode: Wavelengths
Number of Pixels in Spectrum: 2068
>>>>>Begin Spectral Data<<<<<
179.565	1255.94
179.642	1311.36
179.718	1362.09
179.795	1405
179.871	1439.27
179.948	1456.15
180.024	1478.85
180.101	1502.53
180.177	1518.56
180.254	1542.27
180.33	1565.92
180.407	1623.23
180.483	1721.95
180.56	1815.08
180.636	1904.15
180.712	1890.26
180.789	1898.01
180.865	1908.47
180.942	1917.54
181.018	1927.72
181.095	1938.66
181.171	1944.6
181.248	1946.64
181.324	1960.91
181.4	1968.9
181.477	1979.79
181.553	1997
181.63	2017.64
181.706	2033.62
181.782	2040.9
181.859	2041.75
181.935	2043.18
182.011	2039.76
182.088	2056.88
182.164	2079.29
182.24	2093.13
182.317	2104.73
182.393	2105.02
182.469	2119.1
182.546	2136.17
182.622	2139.07
182.698	2135.74
182.775	2146.68
182.851	2163.24
182.927	2154.72
183.003	2148.3
183.08	2143.21
183.156	2148.92
183.232	2145.35
183.308	2135.22
183.385	2142.5
183.461	2160.81
183.537	2164.05
183.613	2178.75
183.69	2169.76
183.766	2157
183.842	2164.71
183.918	2168.94
183.995	2183.83
184.071	2188.59
184.147	2182.83
184.223	2173.32
184.299	2187.17
184.375	2178.56
184.452	2184.84
184.528	2235.33
184.604	2246.47
184.68	2258.36
184.756	2267.02
184.832	2273.21
184.908	2275.54
184.985	2278.2
185.061	2258.5
185.137	2269.4
185.213	2255.51
185.289	2256.94
185.365	2250.28
185.441	2247.71
185.517	2260.89
185.593	2256.8
185.669	2253.04
185.745	2259.46
185.822	2276.06
185.898	2266.5
185.974	2276.96
186.05	2268.2
186.126	2233.85
186.202	2224.81
186.278	2222.33
186.354	2212.44
186.43	2218.96
186.506	2218.05
186.582	2214.25
186.658	2222.86
186.734	2204.11
186.81	2207.2
186.886	2209.06
186.962	2219.19
187.038	2214.15
187.114	2205.67
187.19	2212.24
187.266	2204.39
187.341	2208.58
187.417	2204.06
187.493	2201.35
187.569	2200.11
187.645	2192.07
187.721	2177.18
187.797	2186.64
187.873	2189.21
187.949	2186.6
188.025	2180.5
188.101	2185.5
188.176	2189.97
188.252	2184.64
188.328	2190.11
188.404	2190.68
188.48	2187.88
188.556	2184.45
188.632	2185.73
188.707	2187.73
188.783	2183.16
188.859	2177.51
188.935	2163.28
189.011	2167.65
189.086	2165.61
189.162	2158.14
189.238	2157.57
189.314	2155.81
189.39	2149.58
189.465	2142.54
189.541	2156.38
189.617	2136.93
189.693	2131.74
189.768	2137.26
189.844	2164.92
189.92	2155.69
189.996	2164.87
190.071	2175.1
190.147	2173.91
190.223	2181.19
190.298	2172.96
190.374	2159.17
190.45	2171.44
190.526	2184.47
190.601	2181.91
190.677	2183.86
190.753	2213.85
190.828	2214.75
190.904	2231.6
190.98	2246.54
191.055	2257.05
191.131	2247.39
191.207	2269.37
191.282	2278.08
191.358	2271.42
191.433	2255.75
191.509	2271.21
191.585	2268.83
191.66	2269.83
191.736	2278.68
191.811	2270.35
191.887	2286.49
191.963	2313.85
192.038	2318.37
192.114	2315.9
192.189	2320.89
192.265	2315.42
192.34	2291.86
192.416	2295.57
192.491	2290.23
192.567	2294.66
192.642	2297.66
192.718	2298.14
192.793	2284.86
192.869	2281.05
192.944	2281.63
193.02	2287.62
193.095	2292.05
193.171	2295.33
193.246	2293.95
193.322	2290.19
193.397	2288.72
193.473	2275.96
193.548	2256.97
193.624	2262.54
193.699	2263.01
193.775	2276.63
193.85	2277.82
193.925	2286.96
194.001	2283.25
194.076	2275.92
194.152	2264.97
194.227	2253.88
194.302	2245.13
194.378	2255.74
194.453	2254.41
194.529	2268.83
194.604	2254.12
194.679	2245.22
194.755	2229.1
194.83	2240.62
194.905	2237.76
194.981	2247.61
195.056	2239.48
195.131	2245.76
195.207	2242.04
195.282	2228.72
195.357	2210.59
195.433	2224.43
195.508	2213.91
195.583	2221.86
195.659	2236.71
195.734	2241.75
195.809	2244.7
195.884	2253.46
195.96	2252.41
196.035	2267.64
196.11	2259.74
196.185	2272.06
196.261	2277.39
196.336	2310.32
196.411	2296.71
196.486	2301.94
196.561	2295.14
196.637	2304.61
196.712	2321.03
196.787	2326.94
196.862	2343.73
196.937	2353.35
197.013	2361.53
197.088	2371.96
197.163	2396.19
197.238	2415.3
197.313	2417.39
197.388	2430.91
197.464	2461.87
197.539	2468.96
197.614	2460.92
197.689	2476.58
197.764	2492.58
197.839	2515.39
197.914	2505.24
197.989	2528.91
198.065	2542.05
198.14	2596.18
198.215	2622.57
198.29	2634.1
198.365	2647.1
198.44	2661.86
198.515	2692.69
198.59	2711.32
198.665	2735.99
198.74	2743.19
198.815	2743.38
198.89	2765.25
198.965	2796.27
199.04	2792.46
199.115	2809.32
199.19	2853.21
199.265	2852.45
199.34	2864.17
199.415	2896.74
199.49	2921.32
199.565	2932.38
199.64	2956.26
199.715	2954.73
199.79	2962.79
199.865	2970.18
199.94	2973.37
200.015	3005.61
200.09	3006.89
200.165	3013.57
200.24	3023.25
200.315	3064.76
200.39	3080.36
200.464	3089.99
200.539	3094.14
200.614	3112.21
200.689	3138.15
200.764	3146.02
200.839	3170.43
200.914	3175.91
200.989	3165.61
201.063	3181.15
201.138	3164.05
201.213	3165.33
201.288	3144.68
201.363	3149.88
201.438	3148.79
201.512	3161.56
201.587	3143.01
201.662	3147.01
201.737	3157.89
201.812	3165.33
201.886	3131.25
201.961	3143.61
202.036	3131.07
202.111	3126.01
202.186	3094.27
202.26	3077.53
202.335	3055.69
202.41	3048.44
202.485	3032.04
202.559	3013.02
202.634	2985.46
202.709	2995.51
202.784	2981.4
202.858	2985.02
202.933	2969.24
203.008	2968.19
203.082	2949.51
203.157	2949.6
203.232	2911.91
203.306	2893.79
203.381	2868.09
203.456	2851.03
203.53	2832.61
203.605	2816.98
203.68	2797.96
203.754	2802.1
203.829	2796.1
203.904	2783.76
203.978	2781.09
204.053	2796.58
204.127	2795.53
204.202	2807.16
204.277	2805.01
204.351	2808.35
204.426	2814.31
204.5	2821.89
204.575	2801.54
204.65	2830.53
204.724	2844.08
204.799	2871.37
204.873	2891.07
204.948	2913.95
205.022	2929.06
205.097	2949.96
205.171	2995.63
205.246	3033.32
205.32	3063.54
205.395	3095.07
205.469	3121.38
205.544	3164.81
205.618	3187.24
205.693	3241.68
205.767	3273.13
205.842	3334.99
205.916	3378.08
205.991	3413.35
206.065	3464.86
206.14	3531.89
206.214	3580.18
206.289	3627.71
206.363	3697.44
206.438	3759.94
206.512	3826.74
206.586	3903.9
206.661	3970.79
206.735	4011.5
206.81	4080.94
206.884	4163.25
206.958	4218.95
207.033	4309.25
207.107	4388.8
207.181	4491.44
207.256	4564.95
207.33	4656.54
207.405	4748.98
207.479	4852.35
207.553	4942.82
207.628	5014.33
207.702	5111.69
207.776	5191.4
207.851	5278.79
207.925	5381.02
207.999	5466.01
208.073	5551.67
208.148	5651.26
208.222	5728.66
208.296	5856.96
208.371	5965.17
208.445	6068.12
208.519	6193
208.593	6294.88
208.668	6385.47
208.742	6485.55
208.816	6578.1
208.89	6689.33
208.965	6782.77
209.039	6882.56
209.113	7001.41
209.187	7119.17
209.261	7212.47
209.336	7337.8
209.41	7461.19
209.484	7564.75
209.558	7685.33
209.632	7801.63
209.707	7912.2
209.781	8039.44
209.855	8151.72
209.929	8274.58
210.003	8386.34
210.077	8483.96
210.151	8633.5
210.226	8771.1
210.3	8894.97
210.374	9014.71
210.448	9120.08
210.522	9230.18
210.596	9336.87
210.67	9438.61
210.744	9588.42
210.818	9720.54
210.892	9838.16
210.966	9928.65
211.041	10044.78
211.115	10138.18
211.189	10251.47
211.263	10365.94
211.337	10465.03
211.411	10571.65
211.485	10658.82
211.559	10761.2
211.633	10857.9
211.707	10929.46
211.781	11027.58
211.855	11095.39
211.929	11188.58
212.003	11262.74
212.077	11369.88
212.151	11481.84
212.225	11585.36
212.299	11657.61
212.373	11731.69
212.447	11808.23
212.52	11925.06
212.594	12008.5
212.668	12103.55
212.742	12179.08
212.816	12249.4
212.89	12322.53
212.964	12408.42
213.038	12498.23
213.112	12599.07
213.186	12703.92
213.26	12754.58
213.333	12779.31
213.407	12860.05
213.481	12934
213.555	13028.23
213.629	13089.07
213.703	13143.98
213.777	13221.69
213.85	13285.9
213.924	13402.7
213.998	13482.29
214.072	13551.95
214.146	13614.13
214.219	13689.38
214.293	13767.96
214.367	13843.35
214.441	13929.21
214.515	13988.69
214.588	14030.92
214.662	14060.71
214.736	14104.05
214.81	14182.87
214.883	14272.68
214.957	14331.54
215.031	14394.64
215.105	14436.05
215.178	14489.8
215.252	14550.82
215.326	14582.83
215.4	14618.6
215.473	14629.2
215.547	14667.19
215.621	14709.37
215.694	14778.01
215.768	14814.5
215.842	14845.83
215.915	14892.64
215.989	14922.33
216.063	14970.63
216.136	15025.87
216.21	15086.75
216.284	15152.06
216.357	15205.95
216.431	15249.43
216.504	15306.07
216.578	15371.67
216.652	15435.73
216.725	15490.39
216.799	15545.1
216.873	15608.2
216.946	15673.75
217.02	15715.59
217.093	15769.67
217.167	15800.95
217.24	15829.58
217.314	15868.96
217.387	15921.55
217.461	15958.57
217.535	16029.27
217.608	16066.87
217.682	16116.7
217.755	16169.96
217.829	16203.22
217.902	16251.13
217.976	16296.1
218.049	16335.28
218.123	16371.91
218.196	16421.31
218.27	16462.76
218.343	16494.04
218.417	16533.08
218.49	16575.59
218.563	16647.02
218.637	16691.45
218.71	16761.58
218.784	16815.99
218.857	16884.62
218.931	16930.07
219.004	16983.42
219.077	17032
219.151	17084.92
219.224	17122.03
219.298	17173.45
219.371	17239.18
219.444	17280.97
219.518	17333.02
219.591	17379.38
219.665	17451.43
219.738	17501.98
219.811	17535.33
219.885	17591.96
219.958	17654.94
220.031	17701.26
220.105	17749.83
220.178	17797.69
220.251	17831.23
220.325	17885.3
220.398	17934.36
220.471	17990.16
220.544	18043.95
220.618	18080.47
220.691	18126.4
220.764	18186.06
220.838	18229.62
220.911	18258.49
220.984	18321.81
221.057	18375.11
221.131	18418.58
221.204	18428.99
221.277	18492.26
221.35	18567.1
221.424	18609.41
221.497	18650.71
221.57	18693.46
221.643	18738.95
221.716	18792.53
221.79	18833.01
221.863	18870.02
221.936	18894.41
222.009	18923.13
222.082	18964.28
222.155	18997.53
222.229	19047.02
222.302	19081.34
222.375	19109.43
222.448	19164.32
222.521	19197.81
222.594	19224.56
222.667	19247.25
222.74	19291.78
222.814	19320.69
222.887	19353.22
222.96	19395.49
223.033	19431.05
223.106	19458.23
223.179	19492.06
223.252	19518.95
223.325	19555.67
223.398	19578.75
223.471	19620.15
223.544	19656.82
223.617	19689.88
223.69	19722.5
223.763	19734.5
223.837	19768.38
223.91	19805.3
223.983	19810.55
224.056	19820.48
224.129	19853.73
224.202	19897.19
224.275	19911.8
224.348	19915.55
224.42	19920.52
224.493	19917.63
224.566	19934.45
224.639	19964.76
224.712	19968.28
224.785	19984.76
224.858	19986.49
224.931	19997.96
225.004	20001.24
225.077	20024.42
225.15	20011.55
225.223	20025.53
225.296	20070.83
225.369	20061.67
225.442	20071.74
225.514	20084.32
225.587	20105.19
225.66	20130.1
225.733	20146.78
225.806	20174.63
225.879	20192.75
225.952	20192.51
226.025	20226.87
226.097	20252.03
226.17	20267.21
226.243	20262.68
226.316	20282.97
226.389	20304.56
226.461	20329.52
226.534	20353.28
226.607	20351.5
226.68	20389.96
226.753	20405.04
226.825	20395.16
226.898	20423.59
226.971	20434.15
227.044	20455.45
227.117	20467.88
227.189	20476.94
227.262	20492.75
227.335	20501.28
227.407	20506.63
227.48	20525.57
227.553	20529.09
227.626	20537.76
227.698	20536.03
227.771	20555.06
227.844	20535.06
227.916	20549.47
227.989	20541.91
228.062	20543.21
228.134	20575.74
228.207	20575.16
228.28	20574.82
228.352	20566.82
228.425	20567.45
228.498	20576.46
228.57	20570.34
228.643	20591.69
228.716	20587.5
228.788	20576.99
228.861	20571.21
228.934	20584.8
229.006	20580.56
229.079	20587.98
229.151	20580.7
229.224	20577.09
229.296	20583.64
229.369	20612.75
229.442	20631.79
229.514	20624.99
229.587	20630.15
229.659	20607.16
229.732	20605.72
229.804	20619.5
229.877	20653.33
229.949	20672.22
230.022	20687.55
230.094	20686.01
230.167	20684.85
230.239	20674.25
230.312	20677.09
230.384	20704.66
230.457	20712.23
230.529	20726.2
230.602	20723.26
230.674	20728.23
230.747	20741.33
230.819	20758.88
230.892	20726.01
230.964	20718.88
231.037	20721.86
231.109	20723.21
231.181	20731.6
231.254	20725.14
231.326	20709.24
231.399	20693.82
231.471	20673.14
231.544	20649.91
231.616	20658.73
231.688	20642.2
231.761	20633.33
231.833	20619.98
231.905	20574.92
231.978	20565.33
232.05	20550.63
232.122	20538.39
232.195	20507.35
232.267	20502.29
232.339	20480.75
232.412	20492.27
232.484	20476.8
232.556	20465.04
232.629	20470.1
232.701	20470
232.773	20461.86
232.846	20450.82
232.918	20434.68
232.99	20432.17
233.062	20429.14
233.135	20419.06
233.207	20400.85
233.279	20394.1
233.351	20391.83
233.424	20388.61
233.496	20354.73
233.568	20360.27
233.64	20336.56
233.713	20329.81
233.785	20316.94
233.857	20300.12
233.929	20274.34
234.001	20278.87
234.074	20275.59
234.146	20233.62
234.218	20214.63
234.29	20190.1
234.362	20166.68
234.434	20138.78
234.507	20102.59
234.579	20064.56
234.651	20040.18
234.723	20020.23
234.795	20013.29
234.867	19983.46
234.939	19979.89
235.012	19968.37
235.084	19956.04
235.156	19953.53
235.228	19933.87
235.3	19907.36
235.372	19896.18
235.444	19886.64
235.516	19828.23
235.588	19815.94
235.66	19796.24
235.732	19758.45
235.804	19795.08
235.876	19783.71
235.948	19786.5
236.02	19774.69
236.092	19746.79
236.164	19723.52
236.236	19697.11
236.308	19666.94
236.38	19656.34
236.452	19617.59
236.524	19590.9
236.596	19576.68
236.668	19553.31
236.74	19525.07
236.812	19504.01
236.884	19479.53
236.956	19461.03
237.028	19428.88
237.1	19391.92
237.172	19391.92
237.244	19385.8
237.316	19321.95
237.388	19286.58
237.46	19239.21
237.532	19219.21
237.604	19198.87
237.675	19186.82
237.747	19172.94
237.819	19137.33
237.891	19102.49
237.963	19066.64
238.035	19039.94
238.107	18974.16
238.178	18957.49
238.25	18924.62
238.322	18914.79
238.394	18870.99
238.466	18832.82
238.538	18816.87
238.609	18792.92
238.681	18737.12
238.753	18700.88
238.825	18676.73
238.897	18653.7
238.968	18652.83
239.04	18613.46
239.112	18613.22
239.184	18567.15
239.255	18529.18
239.327	18498.82
239.399	18470.38
239.471	18457.95
239.542	18431.69
239.614	18418.15
239.686	18359.93
239.758	18353.67
239.829	18307.41
239.901	18289.53
239.973	18265.48
240.044	18234.3
240.116	18208.23
240.188	18183.99
240.259	18148.28
240.331	18099.03
240.403	18068.96
240.474	18009.64
240.546	17976.05
240.618	17911.47
240.689	17875.62
240.761	17841.4
240.833	17835.33
240.904	17802.12
240.976	17767.86
241.048	17742.65
241.119	17722.51
241.191	17695.57
241.262	17672.63
241.334	17643.19
241.405	17603.04
241.477	17559.09
241.549	17529.65
241.62	17492.68
241.692	17461.16
241.763	17442.37
241.835	17420.68
241.906	17393.41
241.978	17349.55
242.049	17328.97
242.121	17315.04
242.192	17297.89
242.264	17258.46
242.335	17195.47
242.407	17174.08
242.478	17136.15
242.55	17106.17
242.621	17065.93
242.693	17039.37
242.764	16991.47
242.836	16951.18
242.907	16926.7
242.979	16904.62
243.05	16876.43
243.122	16846.84
243.193	16817.82
243.264	16754.64
243.336	16717.29
243.407	16684.42
243.479	16671.36
243.55	16646.63
243.622	16619.4
243.693	16582.15
243.764	16571.16
243.836	16535.3
243.907	16500.02
243.978	16458.47
244.05	16425.75
244.121	16365.26
244.192	16334.37
244.264	16287.76
244.335	16252.72
244.407	16204.52
244.478	16175.75
244.549	16137.43
244.62	16089.66
244.692	16057.66
244.763	16037.75
244.834	16003.1
244.906	15972.35
244.977	15944.11
245.048	15919.14
245.119	15874.31
245.191	15834.5
245.262	15779.26
245.333	15763.89
245.405	15732.94
245.476	15717.13
245.547	15687.11
245.618	15670.38
245.689	15643.53
245.761	15619.91
245.832	15586.75
245.903	15562.07
245.974	15528.48
246.045	15496.38
246.117	15495.17
246.188	15444.08
246.259	15405.18
246.33	15373.32
246.401	15334.71
246.473	15282.21
246.544	15244.42
246.615	15227.36
246.686	15199.5
246.757	15180.36
246.828	15136.64
246.899	15119.1
246.97	15071.62
247.042	15032.96
247.113	15011.17
247.184	14999.89
247.255	14960.89
247.326	14938.53
247.397	14904.54
247.468	14883.09
247.539	14861.74
247.61	14803.12
247.681	14792.52
247.752	14783.22
247.823	14743.54
247.894	14711.87
247.965	14686.52
248.037	14651.47
248.108	14605.58
248.179	14567.79
248.25	14537.61
248.321	14525.27
248.392	14477.65
248.463	14474.08
248.534	14443.95
248.605	14420.04
248.675	14383.65
248.746	14365.28
248.817	14346.58
248.888	14324.36
248.959	14269.4
249.03	14245.11
249.101	14221.87
249.172	14181.28
249.243	14132.01
249.314	14119.48
249.385	14095.18
249.456	14070.26
249.527	14030.01
249.598	14004.46
249.669	13983.88
249.739	13961.51
249.81	13934.18
249.881	13896.19
249.952	13861.91
250.023	13831.35
250.094	13792.11
250.165	13756.44
250.235	13730.5
250.306	13700.33
250.377	13660.99
250.448	13654.43
250.519	13607.24
250.59	13601.84
250.66	13576.44
250.731	13568.72
250.802	13549.73
250.873	13540.09
250.944	13519.5
251.014	13495.98
251.085	13497.23
251.156	13474
251.227	13460.64
251.297	13443.92
251.368	13436.69
251.439	13425.02
251.51	13417.31
251.58	13376.86
251.651	13343.12
251.722	13330.68
251.792	13288.4
251.863	13269.17
251.934	13255.24
252.005	13254.32
252.075	13227.18
252.146	13209.25
252.217	13193.87
252.287	13175.65
252.358	13142.1
252.429	13135.68
252.499	13100.4
252.57	13076.15
252.641	13064.24
252.711	13036.57
252.782	12998.1
252.852	12997.28
252.923	12970.48
252.994	12949.56
253.064	12950.57
253.135	12920.97
253.205	12887.42
253.276	12888.29
253.347	12887.42
253.417	12850.4
253.488	12822.88
253.558	12797.09
253.629	12779.01
253.699	12765.7
253.77	12748.4
253.841	12724.83
253.911	12700.43
253.982	12688.91
254.052	12677.34
254.123	12654.06
254.193	12635.21
254.264	12652.52
254.334	12618.53
254.405	12583.3
254.475	12552.44
254.546	12521.69
254.616	12519.95
254.687	12510.65
254.757	12494.79
254.827	12464.66
254.898	12444.95
254.968	12435.98
255.039	12409.37
255.109	12402.39
255.18	12368.93
255.25	12327.52
255.321	12316.87
255.391	12284.38
255.461	12291.47
255.532	12239.99
255.602	12219.74
255.673	12181.18
255.743	12143.48
255.813	12097.93
255.884	12091.72
255.954	12072.29
256.024	12076.1
256.095	12054.55
256.165	12019.08
256.235	11997.58
256.306	11970.73
256.376	11969.67
256.446	11949.09
256.517	11939.83
256.587	11926.63
256.657	11906.48
256.728	11890.19
256.798	11866.81
256.868	11850.32
256.938	11822.66
257.009	11811.76
257.079	11801.35
257.149	11810.37
257.219	11776.67
257.29	11764.58
257.36	11722.31
257.43	11716.04
257.5	11668.62
257.571	11640.18
257.641	11624.03
257.711	11587.84
257.781	11580.66
257.852	11563.74
257.922	11528.07
257.992	11502.86
258.062	11480.98
258.132	11472.88
258.202	11451.44
258.273	11437.89
258.343	11437.36
258.413	11404.45
258.483	11394.42
258.553	11362.85
258.623	11331.67
258.693	11316.01
258.764	11313.98
258.834	11317.4
258.904	11296.29
258.974	11274.51
259.044	11257.6
259.114	11246.18
259.184	11237.98
259.254	11219.53
259.324	11179.91
259.394	11166.9
259.464	11170.32
259.535	11148.15
259.605	11127.09
259.675	11099.91
259.745	11078.47
259.815	11050.42
259.885	11033.46
259.955	11043.38
260.025	11016.4
260.095	11005.94
260.165	11005.8
260.235	11006.04
260.305	10982.62
260.375	10959.73
260.445	10967.39
260.515	10968.93
260.585	10961.8
260.655	10944.31
260.725	10934.67
260.795	10923.25
260.865	10928.16
260.934	10896.02
261.004	10889.32
261.074	10870.29
261.144	10871.93
261.214	10870.43
261.284	10846.24
261.354	10835.26
261.424	10797.14
261.494	10803.88
261.564	10785.43
261.634	10766.25
261.703	10731.84
261.773	10722.21
261.843	10711.56
261.913	10695.03
261.983	10659.37
262.053	10654.89
262.123	10637.84
262.192	10605.94
262.262	10609.46
262.332	10577.8
262.402	10568.36
262.472	10550.86
262.541	10517
262.611	10514.88
262.681	10495.02
262.751	10492.28
262.821	10475.7
262.89	10454.79
262.96	10439.86
263.03	10441.78
263.1	10437.93
263.169	10426.13
263.239	10418.99
263.309	10428.29
263.379	10414.71
263.448	10405.84
263.518	10390.47
263.588	10368.99
263.657	10372.5
263.727	10360.07
263.797	10346.1
263.867	10330.4
263.936	10298.89
264.006	10298.55
264.076	10277.11
264.145	10252.35
264.215	10228.55
264.285	10223.16
264.354	10191.08
264.424	10173.78
264.494	10144.54
264.563	10118.13
264.633	10118.09
264.702	10110.67
264.772	10070.1
264.842	10049.39
264.911	10037.35
264.981	10013.93
265.05	10014.94
265.12	9995.96
265.19	9986.33
265.259	9982.47
265.329	9978.09
265.398	9969.76
265.468	9983.1
265.537	9964.46
265.607	9959.89
265.676	9958.1
265.746	9950.44
265.815	9951.65
265.885	9935.8
265.955	9906.71
266.024	9889.42
266.094	9856.57
266.163	9855.22
266.232	9855.8
266.302	9845.73
266.371	9837.06
266.441	9818.13
266.51	9812.06
266.58	9795.4
266.649	9773.1
266.719	9771.8
266.788	9760.14
266.858	9762.84
266.927	9724.93
266.996	9714.33
267.066	9705.81
267.135	9683.37
267.205	9683.51
267.274	9671.04
267.343	9670.36
267.413	9663.72
267.482	9668.44
267.552	9671.42
267.621	9634.63
267.69	9609
267.76	9598.84
267.829	9587
267.898	9579.44
267.968	9555.69
268.037	9556.42
268.106	9553.62
268.176	9531.18
268.245	9517.98
268.314	9499.92
268.384	9502.04
268.453	9488.13
268.522	9478.45
268.592	9477.72
268.661	9450.99
268.73	9447.86
268.799	9424.41
268.869	9432.74
268.938	9401.44
269.007	9378.57
269.076	9375.3
269.146	9373.27
269.215	9365.14
269.284	9379.82
269.353	9368.27
269.422	9355.41
269.492	9333.84
269.561	9290.7
269.63	9280.3
269.699	9260.94
269.768	9252.42
269.838	9243.12
269.907	9248.52
269.976	9222.85
270.045	9193.1
270.114	9191.46
270.183	9178.32
270.253	9180.05
270.322	9150.88
270.391	9143.03
270.46	9149.82
270.529	9150.64
270.598	9149.38
270.667	9136.53
270.736	9107.88
270.806	9100.75
270.875	9106.39
270.944	9101.76
271.013	9125.79
271.082	9123.62
271.151	9123.14
271.22	9095.6
271.289	9085.69
271.358	9066.38
271.427	9064.65
271.496	9059.64
271.565	9042.6
271.634	9033.36
271.703	9052.42
271.772	9057.86
271.841	9047.85
271.91	9022.34
271.979	9007.75
272.048	8981.13
272.117	8988.92
272.186	8974.68
272.255	8974.53
272.324	8970.68
272.393	8965.53
272.462	8945.36
272.531	8931.15
272.6	8918.49
272.669	8923.5
272.738	8912.23
272.807	8910.5
272.876	8890.29
272.945	8915.61
273.013	8917.82
273.082	8919.65
273.151	8873.29
273.22	8868.91
273.289	8860.1
273.358	8871.03
273.427	8857.6
273.496	8859.33
273.564	8851.29
273.633	8851.77
273.702	8827.51
273.771	8812.78
273.84	8804.07
273.909	8806.53
273.977	8807.83
274.046	8797.96
274.115	8809.03
274.184	8790.4
274.253	8788.14
274.322	8797.09
274.39	8762.92
274.459	8748.28
274.528	8717.34
274.597	8713.73
274.665	8708.43
274.734	8716.71
274.803	8709.73
274.872	8710.89
274.94	8694.81
275.009	8728.95
275.078	8716.92
275.147	8714.51
275.215	8710.95
275.284	8718.07
275.353	8705.51
275.421	8674.85
275.49	8690.4
275.559	8678.75
275.627	8671.25
275.696	8656.42
275.765	8652.04
275.833	8644.3
275.902	8644.49
275.971	8661.57
276.039	8677.12
276.108	8678.85
276.177	8676.73
276.245	8659.84
276.314	8653.58
276.383	8662.05
276.451	8616.6
276.52	8619.15
276.588	8633.06
276.657	8638.5
276.725	8625.7
276.794	8618.91
276.863	8633.16
276.931	8606.4
277	8610.83
277.068	8621.32
277.137	8645.05
277.205	8647.16
277.274	8665.31
277.342	8677.87
277.411	8654.67
277.48	8636.19
277.548	8623.78
277.617	8627.63
277.685	8624.93
277.754	8625.08
277.822	8612.56
277.89	8629.17
277.959	8629.65
278.027	8608.28
278.096	8601.07
278.164	8631.87
278.233	8634.13
278.301	8625.28
278.37	8633.7
278.438	8617.19
278.507	8618.11
278.575	8586.97
278.643	8581.39
278.712	8563.68
278.78	8543.61
278.849	8560.21
278.917	8570.51
278.985	8571.52
279.054	8564.97
279.122	8580.37
279.191	8581.38
279.259	8578.49
279.327	8555.63
279.396	8564.44
279.464	8559.39
279.532	8558.33
279.601	8547.01
279.669	8535.9
279.737	8544.32
279.806	8552.65
279.874	8563.71
279.942	8567.8
280.011	8566.02
280.079	8575.22
280.147	8584.98
280.215	8591.34
280.284	8582.53
280.352	8573.44
280.42	8576.8
280.488	8573.44
280.557	8561.45
280.625	8561.79
280.693	8563.91
280.761	8566.07
280.83	8551.54
280.898	8569.68
280.966	8552.36
281.034	8523.05
281.102	8515.73
281.171	8512.36
281.239	8515.06
281.307	8507.7
281.375	8494.03
281.443	8517.85
281.512	8514.48
281.58	8528.39
281.648	8509.82
281.716	8505.73
281.784	8502.7
281.852	8499.09
281.92	8494.9
281.989	8505.44
282.057	8484.46
282.125	8526.43
282.193	8518.97
282.261	8516.09
282.329	8509.73
282.397	8519.31
282.465	8525.66
282.533	8538.12
282.601	8530.47
282.67	8508.19
282.738	8498.61
282.806	8510.4
282.874	8494.28
282.942	8495.44
283.01	8488.46
283.078	8501.21
283.146	8499.14
283.214	8508.33
283.282	8512.18
283.35	8525.03
283.418	8516.75
283.486	8523.78
283.554	8480.6
283.622	8487
283.69	8488.06
283.758	8475.65
283.826	8477.23
283.894	8485.94
283.962	8507.31
284.03	8516.6
284.098	8516.26
284.165	8513.14
284.233	8514.05
284.301	8510.06
284.369	8502.6
284.437	8492.35
284.505	8482.39
284.573	8501.44
284.641	8489.65
284.709	8493.89
284.777	8475.41
284.845	8483.88
284.912	8485.47
284.98	8495.14
285.048	8490.47
285.116	8492.68
285.184	8510.97
285.252	8510.3
285.319	8495.28
285.387	8481.52
285.455	8464.92
285.523	8475.5
285.591	8467.13
285.659	8464.2
285.726	8474.73
285.794	8459.72
285.862	8458.95
285.93	8458.13
285.997	8454.09
286.065	8451.73
286.133	8438.69
286.201	8438.31
286.269	8424.45
286.336	8416.08
286.404	8407.8
286.472	8419.59
286.539	8394.81
286.607	8380.42
286.675	8383.22
286.743	8390.43
286.81	8389.66
286.878	8412.47
286.946	8402.03
287.013	8407.75
287.081	8406.12
287.149	8390.82
287.216	8410.88
287.284	8407.71
287.352	8412.47
287.419	8405.73
287.487	8418.48
287.555	8423.63
287.622	8418.34
287.69	8422.33
287.758	8441.34
287.825	8439.99
287.893	8427.19
287.96	8443.93
288.028	8453.85
288.096	8454.47
288.163	8457.12
288.231	8444.13
288.298	8433.44
288.366	8449.51
288.433	8447.98
288.501	8440.23
288.569	8442.92
288.636	8439.07
288.704	8452.6
288.771	8463.23
288.839	8458.61
288.906	8452.84
288.974	8463.95
289.041	8463.33
289.109	8450.63
289.176	8452.84
289.244	8453.56
289.311	8461.69
289.379	8467.76
289.446	8470.12
289.514	8472.52
289.581	8469.49
289.649	8475.89
289.716	8477.81
289.783	8469.1
289.851	8489.79
289.918	8486.28
289.986	8498.17
290.053	8497.54
290.121	8492.2
290.188	8489.89
290.255	8517.75
290.323	8512.51
290.39	8505.34
290.458	8511.06
290.525	8531.47
290.592	8529.49
290.66	8533.29
290.727	8526.75
290.794	8537.1
290.862	8537.29
290.929	8541.67
290.996	8542.2
291.064	8546.14
291.131	8564.67
291.198	8580.89
291.266	8574.93
291.333	8578.34
291.4	8585.61
291.468	8605.29
291.535	8597.55
291.602	8610.01
291.669	8599.62
291.737	8602.7
291.804	8603.08
291.871	8620.55
291.938	8627.29
292.006	8656.99
292.073	8670.37
292.14	8680.52
292.207	8673.93
292.275	8679.8
292.342	8686.39
292.409	8713.3
292.476	8741.27
292.543	8728.56
292.611	8726.35
292.678	8748.2
292.745	8781.12
292.812	8789.11
292.879	8780.68
292.946	8788.82
293.014	8789.25
293.081	8798.73
293.148	8813.65
293.215	8825.64
293.282	8820.05
293.349	8832.23
293.416	8813.17
293.484	8825.78
293.551	8839.59
293.618	8859.04
293.685	8882.34
293.752	8871.8
293.819	8866.94
293.886	8854.08
293.953	8859.81
294.02	8873.1
294.087	8875.21
294.154	8862.89
294.221	8878.63
294.288	8879.93
294.356	8904.34
294.423	8914.35
294.49	8912.33
294.557	8931.3
294.624	8927.3
294.691	8948.38
294.758	8942.56
294.825	8947.37
294.892	8936.45
294.959	8935.63
295.026	8942.03
295.093	8930.14
295.16	8936.78
295.226	8938.56
295.293	8966.73
295.36	8975.87
295.427	8986.8
295.494	9002.3
295.561	9017.32
295.628	9035.91
295.695	9052.71
295.762	9046.31
295.829	9055.02
295.896	9070.81
295.963	9075.05
296.03	9086.12
296.096	9089.93
296.163	9105.33
296.23	9118.86
296.297	9133.78
296.364	9133.16
296.431	9139.85
296.498	9142.4
296.564	9169.6
296.631	9173.16
296.698	9154.19
296.765	9176.82
296.832	9161.17
296.899	9149.47
296.965	9169.26
297.032	9152.84
297.099	9172.97
297.166	9182.65
297.233	9176.73
297.299	9168.83
297.366	9171.86
297.433	9170.08
297.5	9186.36
297.566	9187.08
297.633	9186.02
297.7	9189.78
297.767	9186.41
297.833	9193.05
297.9	9193.58
297.967	9174.71
298.033	9188.86
298.1	9216.55
298.167	9202.11
298.234	9212.26
298.3	9221.22
298.367	9205.67
298.434	9214.29
298.5	9206.73
298.567	9202.92
298.634	9207.16
298.7	9218.28
298.767	9219.05
298.834	9235.56
298.9	9221.22
298.967	9209.95
299.033	9222.42
299.1	9240.72
299.167	9258.34
299.233	9251.21
299.3	9268.83
299.366	9282.75
299.433	9302.88
299.5	9280.05
299.566	9287.85
299.633	9300.9
299.699	9311.16
299.766	9309.47
299.832	9312.84
299.899	9317.95
299.965	9328.93
300.032	9324.79
300.099	9342.99
300.165	9355.27
300.232	9352.04
300.298	9360.85
300.365	9378.91
300.431	9380.5
300.498	9369.33
300.564	9374.77
300.631	9383
300.697	9394.85
300.763	9397.98
300.83	9393.35
300.896	9401.97
300.963	9414.93
301.029	9417.05
301.096	9427.16
301.162	9442.28
301.229	9433.75
301.295	9427.16
301.361	9435.44
301.428	9442.33
301.494	9422.05
301.561	9420.17
301.627	9425.23
301.693	9428.6
301.76	9436.84
301.826	9423.79
301.892	9443.96
301.959	9455.38
302.025	9457.4
302.092	9451.67
302.158	9464.77
302.224	9466.02
302.291	9462.7
302.357	9454.61
302.423	9451.86
302.49	9435.68
302.556	9444.49
302.622	9442.04
302.688	9452.39
302.755	9466.89
302.821	9474.59
302.887	9481.67
302.954	9484.51
303.02	9492.17
303.086	9493.57
303.152	9485.04
303.219	9494.77
303.285	9491.35
303.351	9494.43
303.417	9496.21
303.483	9484.51
303.55	9472.81
303.616	9466.84
303.682	9461.4
303.748	9460.77
303.815	9476.28
303.881	9488.99
303.947	9476.62
304.013	9480.27
304.079	9471.9
304.145	9447.77
304.212	9444.64
304.278	9441.03
304.344	9430.63
304.41	9415.41
304.476	9409.68
304.542	9408.33
304.608	9409.34
304.674	9395.33
304.741	9385.79
304.807	9388.68
304.873	9397.4
304.939	9413.48
305.005	9392.78
305.071	9401.15
305.137	9401.92
305.203	9376.16
305.269	9374.86
305.335	9386.32
305.401	9388.15
305.467	9382.28
305.533	9395.37
305.599	9405.25
305.666	9413.58
305.732	9414.54
305.798	9433.46
305.864	9457.88
305.93	9461.69
305.996	9463.81
306.062	9463.95
306.128	9463.32
306.194	9452.73
306.259	9452.34
306.325	9439.73
306.391	9460.34
306.457	9466.5
306.523	9470.55
306.589	9498.57
306.655	9485.33
306.721	9476.13
306.787	9462.99
306.853	9478.01
306.919	9459.95
306.985	9457.5
307.051	9449.36
307.117	9442.28
307.183	9430.92
307.248	9400.19
307.314	9406.84
307.38	9406.6
307.446	9415.55
307.512	9408.28
307.578	9410.69
307.644	9403.27
307.709	9409.78
307.775	9402.07
307.841	9397.93
307.907	9396.39
307.973	9369.03
308.039	9368.41
308.104	9367.88
308.17	9374.19
308.236	9363.74
308.302	9366.24
308.368	9345.01
308.433	9350.3
308.499	9349.48
308.565	9333.02
308.631	9345.34
308.696	9317.37
308.762	9306.92
308.828	9303.4
308.894	9290.6
308.959	9272.49
309.025	9265.08
309.091	9259.64
309.156	9249.91
309.222	9249.67
309.288	9240.18
309.354	9224.83
309.419	9228.63
309.485	9216.4
309.551	9214.18
309.616	9196.8
309.682	9193.91
309.748	9189.63
309.813	9184.19
309.879	9175.52
309.945	9173.02
310.01	9159.68
310.076	9164.45
310.141	9157.03
310.207	9132.96
310.273	9130.55
310.338	9136.42
310.404	9123.81
310.469	9106.57
310.535	9096.46
310.601	9071.91
310.666	9069.7
310.732	9079.42
310.797	9065.55
310.863	9051.35
310.928	9044.23
310.994	9048.17
311.059	9043.26
311.125	9042.2
311.191	9055.01
311.256	9045.87
311.322	9047.26
311.387	9024.64
311.453	9240.09
311.518	9218.77
311.584	9230.42
311.649	9233.35
311.715	9217.32
311.78	9215.69
311.846	9209.76
311.911	9214.34
311.976	9218.57
312.042	9206.11
312.107	9193.2
312.173	9184.44
312.238	9181.94
312.304	9175.39
312.369	9165.81
312.434	9152.67
312.5	9147.47
312.565	9106.74
312.631	9106.84
312.696	9100.1
312.761	9107.03
312.827	8880.36
312.892	8918.2
312.958	8906.02
313.023	8898.65
313.088	8902.07
313.154	8890.86
313.219	8880.03
313.284	8876.66
313.35	8868.28
313.415	8859.43
313.48	8851.1
313.546	8851
313.611	8859.52
313.676	8853.99
313.741	8843.01
313.807	8855.72
313.872	8858.95
313.937	8869.2
314.003	8883.06
314.068	8884.12
314.133	8886.34
314.198	8878.83
314.264	8853.84
314.329	8847.87
314.394	8851.19
314.459	8846.81
314.525	8867.89
314.59	8865.01
314.655	8852.83
314.72	8864.38
314.785	8871.65
314.851	8868.81
314.916	8856.2
314.981	8841.9
315.046	8835.4
315.111	8834.73
315.176	8822.5
315.242	8824.48
315.307	8817.45
315.372	8790.88
315.437	8784.28
315.502	8781.3
315.567	8790.93
315.632	8777.06
315.698	8776.73
315.763	8772.06
315.828	8768.11
315.893	8761.42
315.958	8756.32
316.023	8743.47
316.088	8718.78
316.153	8692.16
316.218	8682.11
316.283	8661.08
316.348	8635.96
316.413	8630.57
316.479	8610.02
316.544	8579.27
316.609	8547.61
316.674	8515.37
316.739	8486.31
316.804	8457.68
316.869	8420.43
316.934	8386.12
316.999	8359.56
317.064	8309.33
317.129	8264.01
317.194	8223.88
317.259	8178.65
317.324	8132.86
317.389	8092.21
317.454	8056.85
317.518	8022.9
317.583	7998.8
317.648	7979.94
317.713	7950.32
317.778	7892.89
317.843	7865.43
317.908	7825.03
317.973	7789.73
318.038	7759.58
318.103	7726.65
318.168	7692.6
318.233	7659.61
318.297	7609.8
318.362	7573.01
318.427	7534.94
318.492	7510.04
318.557	7464.9
318.622	7436.73
318.687	7411.45
318.751	7374.78
318.816	7344.35
318.881	7319.36
318.946	7265.43
319.011	7222.51
319.075	7187.23
319.14	7157.49
319.205	7114.43
319.27	7081.43
319.335	7032.52
319.399	6997.64
319.464	6967.42
319.529	6916.83
319.594	6880.17
319.658	6853.18
319.723	6809.51
319.788	6785.69
319.853	6734.49
319.917	6707.07
319.982	6652.55
320.047	6615.29
320.112	6587.01
320.176	6539.42
320.241	6498.07
320.306	6472.48
320.37	6426.11
320.435	6395
320.5	6366.91
320.564	6333.22
320.629	6298.47
320.694	6273.85
320.758	6233
320.823	6192.98
320.888	6167.45
320.952	6118.75
321.017	6073.5
321.082	6037.32
321.146	6003.54
321.211	5968.52
321.275	5927.37
321.34	5884.78
321.405	5843.87
321.469	5794.71
321.534	5754.87
321.598	5705.81
321.663	5676.31
321.727	5650.32
321.792	5606.4
321.857	5564.87
321.921	5520.34
321.986	5476.77
322.05	5418.3
322.115	5379.05
322.179	5332.37
322.244	5277.41
322.308	5246.27
322.373	5204.64
322.437	5163.67
322.502	5136.93
322.566	5096.69
322.631	5061.77
322.695	5026
322.76	4982.8
322.824	4955.99
322.889	4911.37
322.953	4867.05
323.018	4802.97
323.082	4739.32
323.146	4683.57
323.211	4626.47
323.275	4585.83
323.34	4539.95
323.404	4508.76
323.468	4466.75
323.533	4424.27
323.597	4378.8
323.662	4328.58
323.726	4294.09
323.79	4246.94
323.855	4179.38
323.919	4130.52
323.983	4087.43
324.048	4023.12
324.112	4189.77
324.177	4061.09
324.241	3853.94
324.305	3650.91
324.37	3447.97
324.434	3256.02
324.498	3216.9
324.562	3170.92
324.627	3112.46
324.691	3059.24
324.755	2994.21
324.82	2918.44
324.884	2846.4
324.948	2777.79
325.012	2687.03
325.077	2563.82
