Data from 20250703_urea_0.1M_MAYP1162681_00-11-04-989.txt Node
Date: Fri Jul 04 00:11:04 BST 2025
User: adleo
Spectrometer: MAYP116268
Trigger mode: 0
Integration Time (sec): 1.000000E0
Scans to average: 1
Electric dark correction enabled: true
Nonlinearity correction enabled: true
Boxcar width: 10
XAxis mode: Wavelengths
Number of Pixels in Spectrum: 2068
>>>>>Begin Spectral Data<<<<<
179.565	1353.97
179.642	1419.28
179.718	1471.31
179.795	1518.76
179.871	1559.96
179.948	1581.9
180.024	1603.84
180.101	1630.11
180.177	1646.52
180.254	1672.08
180.33	1696.53
180.407	1760.89
180.483	1869.03
180.56	1971.57
180.636	2067.2
180.712	2052.88
180.789	2063.29
180.865	2075.32
180.942	2085.83
181.018	2096.87
181.095	2111.95
181.171	2120.37
181.248	2120.56
181.324	2134.88
181.4	2141.59
181.477	2153.78
181.553	2167.62
181.63	2191.64
181.706	2209.82
181.782	2219
181.859	2219.57
181.935	2228.04
182.011	2226.19
182.088	2244.37
182.164	2263.74
182.24	2278.77
182.317	2289.86
182.393	2290.86
182.469	2307.18
182.546	2321.98
182.622	2325.31
182.698	2321.55
182.775	2334.21
182.851	2350.68
182.927	2342.4
183.003	2337.5
183.08	2328.74
183.156	2336.45
183.232	2332.35
183.308	2318.6
183.385	2328.12
183.461	2347.54
183.537	2345.59
183.613	2357.77
183.69	2344.92
183.766	2331.59
183.842	2339.49
183.918	2344.87
183.995	2360.58
184.071	2363.67
184.147	2357.1
184.223	2345.21
184.299	2361.59
184.375	2350.83
184.452	2357.07
184.528	2413.54
184.604	2423.87
184.68	2438.53
184.756	2448.34
184.832	2455.96
184.908	2461.38
184.985	2460.57
185.061	2442.53
185.137	2453.1
185.213	2442.53
185.289	2448.91
185.365	2443.06
185.441	2442.58
185.517	2458.82
185.593	2452.2
185.669	2449.49
185.745	2460.2
185.822	2479.23
185.898	2467.52
185.974	2475.8
186.05	2466.85
186.126	2429.28
186.202	2420.52
186.278	2416.33
186.354	2407.57
186.43	2410.85
186.506	2407
186.582	2406.19
186.658	2410.85
186.734	2389.44
186.81	2393.29
186.886	2394.53
186.962	2409.24
187.038	2403.9
187.114	2397.14
187.19	2405.33
187.266	2394.81
187.341	2399.24
187.417	2389.48
187.493	2389.05
187.569	2390.39
187.645	2384.06
187.721	2369.77
187.797	2380.77
187.873	2383.67
187.949	2377.1
188.025	2372.67
188.101	2380.62
188.176	2387.14
188.252	2383.81
188.328	2391.9
188.404	2391.28
188.48	2381.76
188.556	2374.38
188.632	2373.91
188.707	2372.48
188.783	2367.53
188.859	2360.53
188.935	2348.82
189.011	2358.48
189.086	2353.82
189.162	2344.49
189.238	2345.16
189.314	2345.2
189.39	2337.16
189.465	2329.45
189.541	2345.49
189.617	2328.17
189.693	2319.08
189.768	2320.93
189.844	2346.93
189.92	2338.42
189.996	2347.56
190.071	2362.93
190.147	2363.83
190.223	2371.17
190.298	2363.07
190.374	2351.93
190.45	2367.21
190.526	2373.02
190.601	2367.83
190.677	2368.49
190.753	2398.64
190.828	2398.26
190.904	2413.21
190.98	2433.07
191.055	2444.78
191.131	2435.83
191.207	2460.53
191.282	2473.15
191.358	2466.34
191.433	2450.95
191.509	2464.61
191.585	2460.9
191.66	2461.9
191.736	2471.18
191.811	2465.28
191.887	2480.32
191.963	2502.42
192.038	2508.08
192.114	2508.13
192.189	2511.27
192.265	2507.23
192.34	2484.55
192.416	2483.93
192.491	2480.46
192.567	2478.31
192.642	2480.79
192.718	2481.12
192.793	2467.08
192.869	2460.89
192.944	2460.65
193.02	2469.7
193.095	2473.94
193.171	2477.51
193.246	2475.79
193.322	2468.41
193.397	2468.46
193.473	2454.17
193.548	2433.6
193.624	2438.79
193.699	2440.03
193.775	2457.22
193.85	2461.08
193.925	2470.65
194.001	2473.93
194.076	2464.75
194.152	2455.98
194.227	2447.84
194.302	2438.51
194.378	2440.56
194.453	2439.27
194.529	2454.32
194.604	2436.08
194.679	2431.09
194.755	2411.81
194.83	2425.1
194.905	2427.58
194.981	2438.48
195.056	2433.58
195.131	2443.72
195.207	2443.19
195.282	2432.72
195.357	2413.72
195.433	2426.67
195.508	2412.81
195.583	2417.24
195.659	2433.05
195.734	2443.05
195.809	2445.1
195.884	2454.14
195.96	2455.85
196.035	2472.14
196.11	2466.18
196.185	2481.99
196.261	2485.85
196.336	2521.65
196.411	2508.03
196.486	2510.5
196.561	2503.5
196.637	2510.45
196.712	2527.03
196.787	2527.6
196.862	2541.84
196.937	2553.31
197.013	2562.7
197.088	2576.03
197.163	2599.14
197.238	2617.44
197.313	2615.73
197.388	2627.35
197.464	2659.84
197.539	2671.08
197.614	2662.51
197.689	2679.18
197.764	2698.63
197.839	2722.26
197.914	2715.68
197.989	2737.26
198.065	2753.75
198.14	2807.29
198.215	2838.6
198.29	2851.19
198.365	2868.2
198.44	2879.97
198.515	2909.33
198.59	2922.77
198.665	2951.47
198.74	2965.3
198.815	2965.58
198.89	2990.13
198.965	3023.52
199.04	3020.32
199.115	3039
199.19	3085.67
199.265	3088.68
199.34	3096.64
199.415	3130.71
199.49	3155.74
199.565	3167.52
199.64	3193.37
199.715	3188.88
199.79	3197.42
199.865	3206.34
199.94	3205.77
200.015	3242.5
200.09	3248.94
200.165	3255.95
200.24	3265.21
200.315	3308.05
200.39	3322.5
200.464	3329.09
200.539	3327.99
200.614	3346.31
200.689	3372.32
200.764	3379.91
200.839	3399.6
200.914	3403.56
200.989	3392.63
201.063	3408.38
201.138	3391.07
201.213	3388.16
201.288	3371.94
201.363	3374.85
201.438	3375.42
201.512	3391.69
201.587	3370.26
201.662	3372.17
201.737	3387.25
201.812	3394.88
201.886	3357.25
201.961	3372.71
202.036	3358.31
202.111	3360.55
202.186	3329.41
202.26	3310.56
202.335	3288.42
202.41	3280.16
202.485	3267.48
202.559	3247.68
202.634	3217.77
202.709	3229.4
202.784	3211.23
202.858	3212.04
202.933	3195.72
203.008	3188.95
203.082	3170.97
203.157	3176.12
203.232	3136.03
203.306	3118.94
203.381	3092.65
203.456	3073
203.53	3055.39
203.605	3045.85
203.68	3027.29
203.754	3032.11
203.829	3026.72
203.904	3016.99
203.978	3018.61
204.053	3034.69
204.127	3036.78
204.202	3053.1
204.277	3054.29
204.351	3068.88
204.426	3082.62
204.5	3093.88
204.575	3082.39
204.65	3119.13
204.724	3137.7
204.799	3175.65
204.873	3201.71
204.948	3230.62
205.022	3252.75
205.097	3277.58
205.171	3327.49
205.246	3377.1
205.32	3413.89
205.395	3454.66
205.469	3486.57
205.544	3538.02
205.618	3574.12
205.693	3637.45
205.767	3674.13
205.842	3753.78
205.916	3805.81
205.991	3852.21
206.065	3920.88
206.14	4001.79
206.214	4060.28
206.289	4122.55
206.363	4207
206.438	4282.54
206.512	4364.68
206.586	4468.06
206.661	4555.66
206.735	4617.19
206.81	4704.02
206.884	4806.58
206.958	4885.47
207.033	4995.04
207.107	5097.11
207.181	5221.46
207.256	5311.84
207.33	5435.33
207.405	5546.61
207.479	5670.16
207.553	5788.4
207.628	5880.69
207.702	6001.13
207.776	6110.42
207.851	6217.95
207.925	6348.15
207.999	6462.4
208.073	6577.78
208.148	6692.37
208.222	6796.93
208.296	6945.31
208.371	7080.94
208.445	7213.08
208.519	7367.04
208.593	7504.44
208.668	7622.67
208.742	7755.09
208.816	7881.43
208.89	8021.31
208.965	8145.68
209.039	8282.27
209.113	8423.53
209.187	8571.4
209.261	8695.4
209.336	8837.51
209.41	8990.28
209.484	9118.29
209.558	9267.98
209.632	9405.86
209.707	9546.08
209.781	9699.11
209.855	9848.6
209.929	9995.24
210.003	10128.86
210.077	10248.9
210.151	10434.78
210.226	10595.5
210.3	10750.52
210.374	10899.97
210.448	11029.5
210.522	11167.61
210.596	11298.4
210.67	11432.32
210.744	11604.13
210.818	11757.67
210.892	11910.98
210.966	12029.21
211.041	12171.4
211.115	12280.81
211.189	12426.33
211.263	12561.78
211.337	12684.74
211.411	12814.84
211.485	12924.08
211.559	13059.43
211.633	13181.63
211.707	13257.6
211.781	13386.79
211.855	13460.98
211.929	13567.66
212.003	13655.25
212.077	13770.27
212.151	13901.15
212.225	14018
212.299	14119.04
212.373	14214.05
212.447	14312.82
212.52	14458.25
212.594	14561.7
212.668	14690.7
212.742	14784.07
212.816	14880.04
212.89	14979.58
212.964	15080.37
213.038	15182.13
213.112	15289.18
213.186	15399.38
213.26	15476.98
213.333	15516.12
213.407	15611.85
213.481	15701.36
213.555	15816.85
213.629	15901.78
213.703	15972.49
213.777	16063.87
213.85	16140.51
213.924	16281.58
213.998	16377.35
214.072	16447.76
214.146	16518.32
214.219	16592.54
214.293	16667.39
214.367	16753.95
214.441	16846.68
214.515	16914.68
214.588	16968.95
214.662	17025.1
214.736	17084.09
214.81	17171.56
214.883	17265.01
214.957	17327.86
215.031	17399.14
215.105	17445.07
215.178	17505.89
215.252	17569.45
215.326	17607.24
215.4	17648.78
215.473	17650.95
215.547	17690.51
215.621	17743.14
215.694	17817.45
215.768	17866.26
215.842	17919.9
215.915	17972.57
215.989	18006.26
216.063	18048.81
216.136	18111.56
216.21	18165.48
216.284	18242.25
216.357	18303.74
216.431	18358.24
216.504	18431.35
216.578	18515.2
216.652	18581.85
216.725	18636.98
216.799	18705.41
216.873	18768.78
216.946	18835.62
217.02	18891.76
217.093	18942.45
217.167	18978.64
217.24	19010.59
217.314	19048.28
217.387	19089.34
217.461	19134.15
217.535	19198.24
217.608	19245.66
217.682	19300.79
217.755	19351.01
217.829	19386.52
217.902	19432.21
217.976	19476.3
218.049	19513.94
218.123	19549.74
218.196	19598.66
218.27	19643.91
218.343	19670.56
218.417	19721.78
218.49	19757.2
218.563	19818.36
218.637	19876.72
218.71	19939.32
218.784	19993.87
218.857	20060.42
218.931	20114.06
219.004	20159.36
219.077	20207.36
219.151	20254.25
219.224	20298.3
219.298	20336.42
219.371	20396.22
219.444	20423.16
219.518	20469.38
219.591	20507.89
219.665	20572.37
219.738	20613.29
219.811	20638.68
219.885	20683.89
219.958	20731.55
220.031	20774.83
220.105	20825.29
220.178	20854.55
220.251	20879.85
220.325	20924.09
220.398	20958.89
220.471	21002.89
220.544	21049.74
220.618	21075.72
220.691	21119.77
220.764	21147.96
220.838	21201.46
220.911	21231.44
220.984	21289.86
221.057	21333.53
221.131	21380.13
221.204	21374.2
221.277	21430.65
221.35	21502.32
221.424	21532.49
221.497	21559.53
221.57	21593.32
221.643	21620.12
221.716	21663.26
221.79	21691.26
221.863	21719.08
221.936	21755.66
222.009	21779.33
222.082	21807.38
222.155	21839.63
222.229	21882.77
222.302	21919.26
222.375	21931.31
222.448	21955.08
222.521	21980.96
222.594	22003.67
222.667	22013.11
222.74	22055.29
222.814	22077.85
222.887	22090.43
222.96	22128.42
223.033	22170.41
223.106	22190.12
223.179	22213.26
223.252	22230.91
223.325	22255.59
223.398	22272.41
223.471	22286.59
223.544	22305.19
223.617	22324.28
223.69	22347.57
223.763	22355.86
223.837	22379.82
223.91	22408.65
223.983	22402.81
224.056	22404.16
224.129	22422.29
224.202	22446.83
224.275	22454.88
224.348	22454.59
224.42	22455.94
224.493	22450.35
224.566	22448.71
224.639	22467.94
224.712	22470.16
224.785	22472.57
224.858	22480.43
224.931	22486.79
225.004	22475.75
225.077	22487.71
225.15	22467.32
225.223	22478.98
225.296	22503.96
225.369	22483.28
225.442	22467.8
225.514	22478.02
225.587	22484.96
225.66	22489.98
225.733	22495.47
225.806	22496.39
225.879	22492.53
225.952	22481.11
226.025	22493.01
226.097	22508.15
226.17	22515.72
226.243	22502.66
226.316	22497.74
226.389	22503.24
226.461	22507.91
226.534	22522.66
226.607	22528.02
226.68	22554.34
226.753	22548.99
226.825	22519.48
226.898	22537.9
226.971	22547.92
227.044	22554.62
227.117	22551.25
227.189	22548.41
227.262	22553.76
227.335	22556.5
227.407	22546.81
227.48	22549.37
227.553	22544.11
227.626	22533.36
227.698	22525.6
227.771	22528.4
227.844	22520.64
227.916	22516.83
227.989	22502.89
228.062	22491.13
228.134	22502.08
228.207	22496.43
228.28	22479.46
228.352	22465.53
228.425	22452.9
228.498	22463.22
228.57	22445.62
228.643	22463.22
228.716	22451.99
228.788	22439.69
228.861	22425.67
228.934	22439.79
229.006	22435.89
229.079	22424.85
229.151	22403.34
229.224	22370.71
229.296	22356.2
229.369	22367.29
229.442	22370.18
229.514	22351.76
229.587	22352.29
229.659	22316.23
229.732	22305.19
229.804	22313.29
229.877	22345.74
229.949	22354.03
230.022	22357.16
230.094	22348.34
230.167	22336.48
230.239	22316.72
230.312	22303.22
230.384	22321.06
230.457	22309.2
230.529	22301.63
230.602	22293
230.674	22288.57
230.747	22292.08
230.819	22303.7
230.892	22270.49
230.964	22257.62
231.037	22247.4
231.109	22236.7
231.181	22241.71
231.254	22216.02
231.326	22193.17
231.399	22165.49
231.471	22141.53
231.544	22099.16
231.616	22102.77
231.688	22076.16
231.761	22058.57
231.833	22029.55
231.905	21983.03
231.978	21966.98
232.05	21948.47
232.122	21928.8
232.195	21905.23
232.267	21909.04
232.339	21882.53
232.412	21883.68
232.484	21854.62
232.556	21830.37
232.629	21838.52
232.701	21827.43
232.773	21808.97
232.846	21787.86
232.918	21756.96
232.99	21738.4
233.062	21723.8
233.135	21702.68
233.207	21672.17
233.279	21662.29
233.351	21658.39
233.424	21630.38
233.496	21594.19
233.568	21593.9
233.64	21561.46
233.713	21544.98
233.785	21508.78
233.857	21492.29
233.929	21447.8
234.001	21452.62
234.074	21447.42
234.146	21398.16
234.218	21366.1
234.29	21342.97
234.362	21301.81
234.434	21270.58
234.507	21226
234.579	21192.88
234.651	21157.31
234.723	21151.14
234.795	21131.72
234.867	21101.6
234.939	21102.22
235.012	21086.37
235.084	21057.5
235.156	21047.81
235.228	21008.53
235.3	20984.14
235.372	20950.26
235.444	20942.36
235.516	20877.48
235.588	20855.27
235.66	20821.14
235.732	20783.02
235.804	20813.29
235.876	20802.74
235.948	20785.39
236.02	20760.08
236.092	20725.29
236.164	20699.6
236.236	20655.84
236.308	20610.88
236.38	20584.52
236.452	20538.44
236.524	20507.41
236.596	20499.94
236.668	20474.83
236.74	20451.6
236.812	20414.54
236.884	20393.29
236.956	20361.77
237.028	20331.5
237.1	20291.02
237.172	20282.3
237.244	20280.13
237.316	20210.3
237.388	20167.31
237.46	20138.49
237.532	20124.51
237.604	20077.14
237.675	20058.49
237.747	20037.67
237.819	19999.31
237.891	19965.77
237.963	19932.04
238.035	19894.84
238.107	19813.35
238.178	19790.94
238.25	19751.13
238.322	19750.7
238.394	19699.76
238.466	19658.94
238.538	19635.57
238.609	19606.61
238.681	19549.31
238.753	19495.14
238.825	19466.86
238.897	19437.94
238.968	19417.07
239.04	19370.81
239.112	19379.34
239.184	19336.31
239.255	19295.97
239.327	19274.19
239.399	19253.08
239.471	19231.88
239.542	19204.85
239.614	19191.64
239.686	19129.19
239.758	19113
239.829	19057.24
239.901	19035.46
239.973	19009.29
240.044	18978.5
240.116	18950.21
240.188	18919.18
240.259	18879.52
240.331	18829.45
240.403	18805.02
240.474	18747.33
240.546	18715.19
240.618	18658.04
240.689	18617.65
240.761	18581.85
240.833	18561.9
240.904	18510
240.976	18459.2
241.048	18427.93
241.119	18401.28
241.191	18382.97
241.262	18360.22
241.334	18325.09
241.405	18287.26
241.477	18234.2
241.549	18198.59
241.62	18163.89
241.692	18141.05
241.763	18126.06
241.835	18089.1
241.906	18044.81
241.978	17997.68
242.049	17973.06
242.121	17949.59
242.192	17930.99
242.264	17879.04
242.335	17824.92
242.407	17799.42
242.478	17769.83
242.55	17743.95
242.621	17697.45
242.693	17655.57
242.764	17614.42
242.836	17580.15
242.907	17550.32
242.979	17521.89
243.05	17490.75
243.122	17458.47
243.193	17415.19
243.264	17359
243.336	17329.69
243.407	17318.8
243.479	17299.48
243.55	17272.25
243.622	17242.9
243.693	17205.16
243.764	17196.44
243.836	17149.69
243.907	17117.83
243.978	17084.53
244.05	17053.21
244.121	17002.02
244.192	16978.89
244.264	16922.31
244.335	16888.33
244.407	16835.32
244.478	16808.23
244.549	16769.82
244.62	16723.36
244.692	16689.81
244.763	16656.17
244.834	16616.46
244.906	16562.82
244.977	16543.83
245.048	16522.33
245.119	16478.28
245.191	16433.7
245.262	16377.02
245.333	16369.16
245.405	16329.4
245.476	16294.94
245.547	16252.24
245.618	16227.56
245.689	16197.15
245.761	16176.81
245.832	16142.97
245.903	16133.62
245.974	16109.57
246.045	16071.59
246.117	16052.51
246.188	16002.18
246.259	15958.08
246.33	15924.15
246.401	15895.71
246.473	15846.89
246.544	15801.05
246.615	15782.73
246.686	15752.22
246.757	15736.12
246.828	15692.36
246.899	15676.16
246.97	15630.71
247.042	15588.87
247.113	15565.06
247.184	15549.93
247.255	15506.54
247.326	15475.7
247.397	15432.12
247.468	15401.32
247.539	15377.03
247.61	15335.86
247.681	15324.3
247.752	15313.55
247.823	15276.19
247.894	15246.69
247.965	15199.45
248.037	15165.61
248.108	15116.01
248.179	15082.22
248.25	15049.4
248.321	15027.66
248.392	14985.77
248.463	14985
248.534	14955.25
248.605	14938.53
248.675	14899.1
248.746	14879.34
248.817	14857.93
248.888	14840.82
248.959	14799.99
249.03	14779.7
249.101	14751.88
249.172	14720.02
249.243	14670.13
249.314	14662.27
249.385	14636.29
249.456	14626.21
249.527	14592.95
249.598	14572.56
249.669	14538.39
249.739	14513.61
249.81	14486.08
249.881	14449.93
249.952	14414.98
250.023	14384.61
250.094	14335.63
250.165	14296.93
250.235	14266.07
250.306	14238.4
250.377	14192.03
250.448	14167.54
250.519	14106.9
250.59	14095.28
250.66	14055.41
250.731	14051.99
250.802	14018.83
250.873	13996.99
250.944	13973.95
251.014	13943.05
251.085	13948.16
251.156	13933.6
251.227	13922.85
251.297	13912.63
251.368	13888.72
251.439	13883.22
251.51	13876.47
251.58	13839.4
251.651	13809.85
251.722	13798.52
251.792	13753.93
251.863	13731.03
251.934	13718.02
252.005	13732.14
252.075	13707.41
252.146	13701.68
252.217	13688.32
252.287	13669.91
252.358	13647.54
252.429	13634.72
252.499	13607.96
252.57	13579.91
252.641	13568.67
252.711	13537.87
252.782	13500.37
252.852	13504.75
252.923	13477.37
252.994	13450.04
253.064	13445.36
253.135	13414.37
253.205	13388
253.276	13385.3
253.347	13380.48
253.417	13352.28
253.488	13320.36
253.558	13286.76
253.629	13264.78
253.699	13238.99
253.77	13225.73
253.841	13196.76
253.911	13183.17
253.982	13159.59
254.052	13144.94
254.123	13116.11
254.193	13098.66
254.264	13115.97
254.334	13082.03
254.405	13041.49
254.475	13011.12
254.546	12993.14
254.616	12990.58
254.687	12972.31
254.757	12953.56
254.827	12921.79
254.898	12902.37
254.968	12881.45
255.039	12859.46
255.109	12847.8
255.18	12820.03
255.25	12773.27
255.321	12761.66
255.391	12722.51
255.461	12726.18
255.532	12674.69
255.602	12659.99
255.673	12614.87
255.743	12584.89
255.813	12533.02
255.884	12524.25
255.954	12515.71
256.024	12510.51
256.095	12487.51
256.165	12452.66
256.235	12442.59
256.306	12418.24
256.376	12410.82
256.446	12403.93
256.517	12384.79
256.587	12372.74
256.657	12355.34
256.728	12341.36
256.798	12313.69
256.868	12292.53
256.938	12266.07
257.009	12258.4
257.079	12238.98
257.149	12253.68
257.219	12207.59
257.29	12203.45
257.36	12163.83
257.43	12153.99
257.5	12111.82
257.571	12088.97
257.641	12081.31
257.711	12044.58
257.781	12039.47
257.852	12020.28
257.922	11983.79
257.992	11971.36
258.062	11947.11
258.132	11934.19
258.202	11908.74
258.273	11898.96
258.343	11899.01
258.413	11873.27
258.483	11851.34
258.553	11819.53
258.623	11795.71
258.693	11783.09
258.764	11784.34
258.834	11788.15
258.904	11768.19
258.974	11741.44
259.044	11721.39
259.114	11701.73
259.184	11687.27
259.254	11662.35
259.324	11620.37
259.394	11607.6
259.464	11603.74
259.535	11583.59
259.605	11560.36
259.675	11542.77
259.745	11526.14
259.815	11488.5
259.885	11460.11
259.955	11472.74
260.025	11449.85
260.095	11424.02
260.165	11411.24
260.235	11413.51
260.305	11388.11
260.375	11360.69
260.445	11371.43
260.515	11372.01
260.585	11370.86
260.655	11352.98
260.725	11345.12
260.795	11345.55
260.865	11350.28
260.934	11322.37
261.004	11308.49
261.074	11295.09
261.144	11291.87
261.214	11284.73
261.284	11271.91
261.354	11268.59
261.424	11240.39
261.494	11251.62
261.564	11233.84
261.634	11224.68
261.703	11182.56
261.773	11168.54
261.843	11157.45
261.913	11137.31
261.983	11100.59
262.053	11093.4
262.123	11079.53
262.192	11046.32
262.262	11041.41
262.332	11004.98
262.402	10995.72
262.472	10984.98
262.541	10945.8
262.611	10945.71
262.681	10920.41
262.751	10920.55
262.821	10904.99
262.89	10865.42
262.96	10847.21
263.03	10857.04
263.1	10841.52
263.169	10826.44
263.239	10815.16
263.309	10819.26
263.379	10809.48
263.448	10795.26
263.518	10782.83
263.588	10767.94
263.657	10780.42
263.727	10774.88
263.797	10758.98
263.867	10745.68
263.936	10712.91
264.006	10717.3
264.076	10697.68
264.145	10679.81
264.215	10653.79
264.285	10644.92
264.354	10620.69
264.424	10598.57
264.494	10567.16
264.563	10551.98
264.633	10560.89
264.702	10553.13
264.772	10519.5
264.842	10497.29
264.911	10489.92
264.981	10456.77
265.05	10441.93
265.12	10421.84
265.19	10401.02
265.259	10395.72
265.329	10381.46
265.398	10375.87
265.468	10384.54
265.537	10362.48
265.607	10350.91
265.676	10343.49
265.746	10334.15
265.815	10335.4
265.885	10322.63
265.955	10292.96
266.024	10273.11
266.094	10230.33
266.163	10230.71
266.232	10232.21
266.302	10220.5
266.371	10211.97
266.441	10199.35
266.51	10196.12
266.58	10175.02
266.649	10153.68
266.719	10152.72
266.788	10144.09
266.858	10147.95
266.927	10109.07
266.996	10102.67
267.066	10097.85
267.135	10075.5
267.205	10068.17
267.274	10057.34
267.343	10060.66
267.413	10050.02
267.482	10052.42
267.552	10057.92
267.621	10028.96
267.69	10000.93
267.76	9991.49
267.829	9988.6
267.898	9973.71
267.968	9952.47
268.037	9947.51
268.106	9947.07
268.176	9925.44
268.245	9915.18
268.314	9894.28
268.384	9903.72
268.453	9892.59
268.522	9882.28
268.592	9885.08
268.661	9867.93
268.73	9859.36
268.799	9834.21
268.869	9846.88
268.938	9813.89
269.007	9796.55
269.076	9784.31
269.146	9786.77
269.215	9778.05
269.284	9785.71
269.353	9774.78
269.422	9764.52
269.492	9748.1
269.561	9702.3
269.63	9694.16
269.699	9674.75
269.768	9661.84
269.838	9653.75
269.907	9652.45
269.976	9629.81
270.045	9593.07
270.114	9588.54
270.183	9579.3
270.253	9572.27
270.322	9538.07
270.391	9530.27
270.46	9533.31
270.529	9533.55
270.598	9524.44
270.667	9506.63
270.736	9471.47
270.806	9460.77
270.875	9450.81
270.944	9440.45
271.013	9468.24
271.082	9457.26
271.151	9459.33
271.22	9436.51
271.289	9419.75
271.358	9403.85
271.427	9398.7
271.496	9399.67
271.565	9380.69
271.634	9370.72
271.703	9398.8
271.772	9399.53
271.841	9387.39
271.91	9364.23
271.979	9350.65
272.048	9329.94
272.117	9330.23
272.186	9319.11
272.255	9321.37
272.324	9324.55
272.393	9323.11
272.462	9306.73
272.531	9299.9
272.6	9281.4
272.669	9281.55
272.738	9266.04
272.807	9258.15
272.876	9234.03
272.945	9260.51
273.013	9266.68
273.082	9275.58
273.151	9229.93
273.22	9230.22
273.289	9227.86
273.358	9236
273.427	9224.54
273.496	9222.42
273.564	9221.75
273.633	9224.59
273.702	9200.85
273.771	9191.99
273.84	9184.24
273.909	9178.37
273.977	9174.66
274.046	9168.54
274.115	9178.03
274.184	9164.26
274.253	9161.95
274.322	9169.36
274.39	9137.87
274.459	9117.12
274.528	9082.36
274.597	9072.2
274.665	9068.88
274.734	9071.48
274.803	9063.87
274.872	9057.23
274.94	9044.04
275.009	9080.5
275.078	9063.79
275.147	9066.34
275.215	9057.92
275.284	9067.93
275.353	9058.88
275.421	9033.03
275.49	9045.74
275.559	9028.94
275.627	9022.2
275.696	9009.78
275.765	9016.71
275.833	9005.11
275.902	9010.21
275.971	9022.06
276.039	9044.68
276.108	9049.5
276.177	9044.44
276.245	9027.16
276.314	9024.03
276.383	9029.18
276.451	8981.6
276.52	8979.68
276.588	8990.85
276.657	9000.33
276.725	8985.7
276.794	8986.22
276.863	8999.32
276.931	8973.46
277	8979.1
277.068	8988.34
277.137	9008.37
277.205	9000.95
277.274	9020.35
277.342	9026.13
277.411	9009.57
277.48	8984.06
277.548	8961.96
277.617	8965.71
277.685	8966.53
277.754	8971.54
277.822	8963.35
277.89	8979.29
277.959	8973.85
278.027	8957.92
278.096	8946.41
278.164	8974.19
278.233	8963.84
278.301	8954.84
278.37	8961.68
278.438	8955.85
278.507	8952.34
278.575	8923.21
278.643	8923.12
278.712	8900.4
278.78	8883.69
278.849	8896.4
278.917	8913.44
278.985	8914.31
279.054	8921.58
279.122	8928.75
279.191	8924.51
279.259	8923.69
279.327	8898.52
279.396	8917.19
279.464	8915.65
279.532	8922.97
279.601	8918.49
279.669	8920.9
279.737	8937.22
279.806	8937.84
279.874	8943.67
279.942	8947.81
280.011	8946.56
280.079	8952.81
280.147	8969.71
280.215	8979.58
280.284	8971.73
280.352	8954.21
280.42	8965.57
280.488	8950.41
280.557	8945.5
280.625	8947.52
280.693	8944.53
280.761	8948.24
280.83	8927.35
280.898	8934.13
280.966	8914.78
281.034	8874.39
281.102	8851.63
281.171	8843.97
281.239	8853.7
281.307	8841.42
281.375	8830.11
281.443	8855.87
281.512	8850.19
281.58	8856.69
281.648	8839.65
281.716	8838.73
281.784	8841.28
281.852	8829.2
281.92	8824.77
281.989	8830.36
282.057	8817.65
282.125	8859.49
282.193	8855.01
282.261	8855.2
282.329	8851.4
282.397	8850.39
282.465	8854.96
282.533	8868.82
282.601	8854.53
282.67	8831.42
282.738	8829.01
282.806	8836.86
282.874	8821.55
282.942	8822.61
283.01	8815.96
283.078	8825.59
283.146	8819.72
283.214	8829.2
283.282	8838.16
283.35	8856.11
283.418	8852.84
283.486	8857.65
283.554	8814.56
283.622	8815.96
283.69	8817.5
283.758	8814.71
283.826	8823.71
283.894	8837.38
283.962	8863.95
284.03	8876.9
284.098	8879.79
284.165	8871.03
284.233	8873.77
284.301	8865.3
284.369	8860.68
284.437	8848.16
284.505	8843.45
284.573	8860.15
284.641	8844.36
284.709	8846.96
284.777	8827.41
284.845	8832.08
284.912	8836.17
284.98	8842.58
285.048	8838.15
285.116	8847.53
285.184	8857.21
285.252	8852.69
285.319	8839.26
285.387	8827.46
285.455	8811.19
285.523	8812.73
285.591	8813.69
285.659	8813.07
285.726	8829.72
285.794	8812.49
285.862	8814.32
285.93	8813.99
285.997	8804.79
286.065	8798.63
286.133	8787.99
286.201	8785.39
286.269	8775.24
286.336	8762.87
286.404	8760.51
286.472	8771.1
286.539	8743.33
286.607	8723.45
286.675	8722.73
286.743	8728.79
286.81	8726.14
286.878	8738.71
286.946	8732.4
287.013	8732.64
287.081	8735.58
287.149	8715.65
287.216	8745.2
287.284	8740.25
287.352	8734.33
287.419	8734.9
287.487	8755.94
287.555	8759.26
287.622	8760.08
287.69	8765.08
287.758	8781.4
287.825	8772.93
287.893	8757.09
287.96	8767.83
288.028	8781.06
288.096	8784.67
288.163	8789.48
288.231	8771.72
288.298	8773.84
288.366	8788.86
288.433	8782.6
288.501	8770.91
288.569	8775.34
288.636	8758.44
288.704	8769.27
288.771	8774.13
288.839	8759.88
288.906	8751.08
288.974	8766.38
289.041	8762.49
289.109	8746.75
289.176	8758.49
289.244	8762.87
289.311	8785.26
289.379	8796.33
289.446	8805.42
289.514	8805.57
289.581	8803.6
289.649	8810.38
289.716	8813.46
289.783	8811.58
289.851	8839.6
289.918	8840.75
289.986	8852.79
290.053	8862.17
290.121	8861.16
290.188	8866.99
290.255	8902.85
290.323	8893.41
290.39	8880.46
290.458	8880.03
290.525	8894.71
290.592	8883.2
290.66	8885.71
290.727	8873.19
290.794	8886.43
290.862	8878.29
290.929	8881.18
290.996	8879.01
291.064	8890.76
291.131	8897.4
291.198	8905.78
291.266	8897.79
291.333	8897.21
291.4	8900.68
291.468	8914.06
291.535	8908.81
291.602	8910.84
291.669	8903.18
291.737	8908.96
291.804	8910.74
291.871	8933.36
291.938	8947.71
292.006	8980.35
292.073	8996.58
292.14	9010.63
292.207	9000.57
292.275	8999.75
292.342	9007.89
292.409	9037.55
292.476	9057.87
292.543	9053.87
292.611	9052.81
292.678	9070.62
292.745	9101.72
292.812	9112.65
292.879	9112.7
292.946	9123.91
293.014	9144.33
293.081	9153.09
293.148	9168.06
293.215	9187.61
293.282	9177.12
293.349	9184.53
293.416	9163.87
293.484	9175.24
293.551	9184.14
293.618	9207.59
293.685	9242.5
293.752	9233.3
293.819	9222.9
293.886	9210.48
293.953	9218.95
294.02	9229.98
294.087	9235.32
294.154	9227.28
294.221	9244.09
294.288	9241.78
294.356	9256.03
294.423	9255.59
294.49	9246.11
294.557	9263.59
294.624	9250.83
294.691	9274.76
294.758	9272.16
294.825	9283.14
294.892	9272.01
294.959	9278.18
295.026	9284.68
295.093	9275.05
295.16	9283.23
295.226	9288.91
295.293	9322.96
295.36	9319.16
295.427	9332.01
295.494	9349.01
295.561	9357.68
295.628	9381.91
295.695	9400.3
295.762	9404.54
295.829	9423.75
295.896	9441.95
295.963	9450.38
296.03	9461.02
296.096	9465.5
296.163	9482.69
296.23	9491.07
296.297	9505.66
296.364	9493.29
296.431	9495.26
296.498	9489.58
296.564	9515.92
296.631	9519.39
296.698	9499.16
296.765	9528.39
296.832	9515.96
296.899	9495.98
296.965	9509.46
297.032	9484.75
297.099	9496.5
297.166	9508.21
297.233	9498.19
297.299	9492.75
297.366	9491.64
297.433	9495.25
297.5	9509.36
297.566	9503.15
297.633	9500.45
297.7	9510.95
297.767	9516.87
297.833	9522.65
297.9	9531.66
297.967	9512.78
298.033	9530.84
298.1	9561.86
298.167	9553.77
298.234	9559.84
298.3	9580.88
298.367	9578.18
298.434	9587.72
298.5	9583.63
298.567	9570.91
298.634	9570.14
298.7	9592.39
298.767	9596.48
298.834	9613.92
298.9	9603.66
298.967	9597.69
299.033	9612.43
299.1	9626.49
299.167	9637.81
299.233	9637.33
299.3	9649.99
299.366	9667.95
299.433	9681.87
299.5	9656.44
299.566	9662.7
299.633	9685.68
299.699	9692.23
299.766	9694.63
299.832	9693.91
299.899	9704.22
299.965	9725.65
300.032	9722.38
300.099	9727.39
300.165	9734.56
300.232	9729.79
300.298	9739.28
300.365	9759.51
300.431	9762.3
300.498	9751.85
300.564	9761.29
300.631	9766.44
300.697	9781.23
300.763	9785.33
300.83	9777.81
300.896	9787.78
300.963	9795.29
301.029	9795.34
301.096	9799.53
301.162	9814.61
301.229	9811.91
301.295	9797.12
301.361	9795.1
301.428	9802.37
301.494	9785.23
301.561	9786.53
301.627	9788.89
301.693	9787.54
301.76	9788.36
301.826	9777.18
301.892	9795.44
301.959	9801.17
302.025	9800.93
302.092	9793.99
302.158	9800.25
302.224	9805.75
302.291	9800.98
302.357	9797.17
302.423	9787.54
302.49	9775.55
302.556	9779.79
302.622	9782.48
302.688	9797.27
302.755	9811.58
302.821	9815.62
302.887	9826.12
302.954	9820.82
303.02	9829.01
303.086	9836.19
303.152	9833.92
303.219	9832.91
303.285	9837.2
303.351	9849.1
303.417	9855.74
303.483	9839.71
303.55	9829.59
303.616	9830.36
303.682	9830.7
303.748	9825.69
303.815	9845.05
303.881	9853.92
303.947	9843.13
304.013	9844.76
304.079	9835.13
304.145	9817.07
304.212	9817.36
304.278	9809.12
304.344	9807.29
304.41	9792.07
304.476	9784.32
304.542	9779.02
304.608	9786
304.674	9761.97
304.741	9758.93
304.807	9762.5
304.873	9775.6
304.939	9789.71
305.005	9766.2
305.071	9759.75
305.137	9761.87
305.203	9732.97
305.269	9735.47
305.335	9742.65
305.401	9736.58
305.467	9730.03
305.533	9742.75
305.599	9755.32
305.666	9765.29
305.732	9771.69
305.798	9787.2
305.864	9814.23
305.93	9815.24
305.996	9814.95
306.062	9816.2
306.128	9801.61
306.194	9784.27
306.259	9780.37
306.325	9777.57
306.391	9792.41
306.457	9804.64
306.523	9807
306.589	9832.19
306.655	9820.73
306.721	9809.41
306.787	9802.42
306.853	9821.35
306.919	9798.33
306.985	9786.68
307.051	9778.92
307.117	9768.61
307.183	9764.71
307.248	9732.68
307.314	9738.12
307.38	9738.65
307.446	9746.41
307.512	9743.08
307.578	9751.46
307.644	9747.13
307.709	9745.49
307.775	9740.43
307.841	9731.86
307.907	9735.09
307.973	9718.09
308.039	9720.73
308.104	9723
308.17	9722.71
308.236	9706.24
308.302	9710.52
308.368	9700.75
308.433	9701.42
308.499	9698.1
308.565	9684.03
308.631	9682.06
308.696	9656.97
308.762	9646.32
308.828	9644.49
308.894	9625.13
308.959	9598.5
309.025	9592.05
309.091	9592.34
309.156	9578.28
309.222	9579.43
309.288	9564.94
309.354	9544.66
309.419	9543.79
309.485	9525.25
309.551	9533.54
309.616	9514.95
309.682	9513.12
309.748	9506.62
309.813	9502.14
309.879	9493.09
309.945	9481.72
310.01	9483.31
310.076	9495.59
310.141	9487.55
310.207	9470.4
310.273	9471.08
310.338	9479.12
310.404	9457.31
310.469	9438.14
310.535	9432.7
310.601	9411.85
310.666	9415.84
310.732	9422.78
310.797	9406.07
310.863	9400.48
310.928	9396.63
310.994	9403.51
311.059	9398.26
311.125	9394.36
311.191	9407.75
311.256	9395.72
311.322	9400.63
311.387	9374.96
311.453	9684.34
311.518	9664.5
311.584	9659.78
311.649	9669.36
311.715	9656.85
311.78	9667.15
311.846	9656.41
311.911	9667.39
311.976	9673.02
312.042	9655.98
312.107	9640.86
312.173	9634.55
312.238	9632.19
312.304	9623.62
312.369	9615.48
312.434	9603.3
312.5	9597.33
312.565	9558.37
312.631	9561.55
312.696	9551.29
312.761	9562.95
312.827	9237.34
312.892	9274.56
312.958	9270.81
313.023	9267.2
313.088	9270.71
313.154	9254.63
313.219	9248.18
313.284	9232.34
313.35	9224.15
313.415	9210.77
313.48	9207.69
313.546	9211.06
313.611	9220.59
313.676	9206.96
313.741	9205.33
313.807	9216.26
313.872	9215.2
313.937	9218.28
314.003	9230.65
314.068	9233.59
314.133	9232.44
314.198	9225.12
314.264	9203.69
314.329	9195.98
314.394	9191.46
314.459	9182.74
314.525	9200.94
314.59	9195.26
314.655	9185.54
314.72	9197
314.785	9207.78
314.851	9202.87
314.916	9182.36
314.981	9167.63
315.046	9157.56
315.111	9137.92
315.176	9128.58
315.242	9136.91
315.307	9141.29
315.372	9116.4
315.437	9100.32
315.502	9094.06
315.567	9105.09
315.632	9084.58
315.698	9086.74
315.763	9082.55
315.828	9073.46
315.893	9071.1
315.958	9071.92
316.023	9059.88
316.088	9041.01
316.153	9018.43
316.218	9013.76
316.283	8995.42
316.348	8974.97
316.413	8979.97
316.479	8971.6
316.544	8935.16
316.609	8902.09
316.674	8861.66
316.739	8832.35
316.804	8811.41
316.869	8770.69
316.934	8727.13
316.999	8701.67
317.064	8653.98
317.129	8609.65
317.194	8572.26
317.259	8526.29
317.324	8473.8
317.389	8430.88
317.454	8388.05
317.518	8354.32
317.583	8326.17
317.648	8307.6
317.713	8274.45
317.778	8212.23
317.843	8183.8
317.908	8148.78
317.973	8111.68
318.038	8086.53
318.103	8047.72
318.168	8012.94
318.233	7985.42
318.297	7941.94
318.362	7901.88
318.427	7855.1
318.492	7823.54
318.557	7782.53
318.622	7750.21
318.687	7729.58
318.751	7689.39
318.816	7655.73
318.881	7617.37
318.946	7563.61
319.011	7518.8
319.075	7472.75
319.14	7433.86
319.205	7386.8
319.27	7345.22
319.335	7304.27
319.399	7260.53
319.464	7236.98
319.529	7178.94
319.594	7140.96
319.658	7108.63
319.723	7069.18
319.788	7046.21
319.853	6996.72
319.917	6964.97
319.982	6910.38
320.047	6871.47
320.112	6846.49
320.176	6793.9
320.241	6763.25
320.306	6735.25
320.37	6693.61
320.435	6663.06
320.5	6641.02
320.564	6602.99
320.629	6567.75
320.694	6531.4
320.758	6490.93
320.823	6444.4
320.888	6424.19
320.952	6369.76
321.017	6327.14
321.082	6289.55
321.146	6258.83
321.211	6224.66
321.275	6185.27
321.34	6141.7
321.405	6097.84
321.469	6048.48
321.534	6010.25
321.598	5958.72
321.663	5924.41
321.727	5893.04
321.792	5847.71
321.857	5801.41
321.921	5763.28
321.986	5719.51
322.05	5662.6
322.115	5627.26
322.179	5580.66
322.244	5524.15
322.308	5498.31
322.373	5453.11
322.437	5410.45
322.502	5381.59
322.566	5334.81
322.631	5299.25
322.695	5263.27
322.76	5214.41
322.824	5187.44
322.889	5141.37
322.953	5095.73
323.018	5031.2
323.082	4965.31
323.146	4912.17
323.211	4855.14
323.275	4809.79
323.34	4761.55
323.404	4729.77
323.468	4686.44
323.533	4644.81
323.597	4601.18
323.662	4544.56
323.726	4511.35
323.79	4465.42
323.855	4394.49
323.919	4345.13
323.983	4300.06
324.048	4233.99
324.112	4377.31
324.177	4243.98
324.241	4028.66
324.305	3814.48
324.37	3602.59
324.434	3400.13
324.498	3356.02
324.562	3305.36
324.627	3240.65
324.691	3186.45
324.755	3114.51
324.82	3030.82
324.884	2950.11
324.948	2870.02
325.012	2772.15
325.077	2637.14
