Data from 20250703_urea_0.1M_MAYP1162681_08-21-05-625.txt Node
Date: Fri Jul 04 08:21:05 BST 2025
User: adleo
Spectrometer: MAYP116268
Trigger mode: 0
Integration Time (sec): 1.000000E0
Scans to average: 1
Electric dark correction enabled: true
Nonlinearity correction enabled: true
Boxcar width: 10
XAxis mode: Wavelengths
Number of Pixels in Spectrum: 2068
>>>>>Begin Spectral Data<<<<<
179.565	1239.63
179.642	1296.63
179.718	1339.87
179.795	1377.36
179.871	1411.12
179.948	1429.67
180.024	1451.62
180.101	1475.07
180.177	1491.75
180.254	1514.99
180.33	1538.68
180.407	1593.23
180.483	1690.53
180.56	1783.66
180.636	1869.83
180.712	1856.46
180.789	1866.64
180.865	1878.99
180.942	1888.4
181.018	1897.81
181.095	1910.27
181.171	1914.36
181.248	1914.55
181.324	1930.53
181.4	1938.9
181.477	1950.69
181.553	1963.95
181.63	1985.59
181.706	1998.1
181.782	2000.67
181.859	2000.48
181.935	2004.9
182.011	1999.86
182.088	2016.6
182.164	2031.78
182.24	2045.28
182.317	2054.93
182.393	2054.17
182.469	2069.1
182.546	2084.85
182.622	2091.22
182.698	2083.9
182.775	2094.22
182.851	2108.1
182.927	2100.83
183.003	2097.26
183.08	2091.65
183.156	2101.16
183.232	2094.69
183.308	2085.23
183.385	2099.49
183.461	2117.71
183.537	2117.43
183.613	2132.65
183.69	2124.18
183.766	2115.33
183.842	2123.42
183.918	2128.17
183.995	2143.25
184.071	2144.87
184.147	2135.59
184.223	2123.42
184.299	2136.22
184.375	2127.85
184.452	2137.03
184.528	2186.7
184.604	2197.74
184.68	2209.39
184.756	2215.25
184.832	2222.62
184.908	2227.85
184.985	2225.57
185.061	2207.3
185.137	2217.86
185.213	2206.11
185.289	2206.21
185.365	2201.26
185.441	2199.27
185.517	2209.12
185.593	2203.45
185.669	2200.84
185.745	2211.11
185.822	2229.38
185.898	2223.43
185.974	2233.7
186.05	2225.18
186.126	2189.69
186.202	2182.03
186.278	2176.08
186.354	2165.76
186.43	2171.95
186.506	2170.9
186.582	2170.57
186.658	2178.18
186.734	2156.01
186.81	2158.63
186.886	2160.15
186.962	2171.8
187.038	2168.71
187.114	2163.43
187.19	2170.33
187.266	2158.72
187.341	2162.2
187.417	2152.73
187.493	2151.11
187.569	2153.49
187.645	2146.02
187.721	2132.51
187.797	2139.69
187.873	2146.16
187.949	2141.69
188.025	2133.65
188.101	2136.69
188.176	2141.69
188.252	2137.69
188.328	2149.53
188.404	2149.34
188.48	2144.02
188.556	2135.93
188.632	2138.35
188.707	2134.88
188.783	2131.41
188.859	2128.32
188.935	2114.09
189.011	2120.65
189.086	2115.57
189.162	2104.01
189.238	2101.1
189.314	2101.49
189.39	2096.2
189.465	2087.74
189.541	2103.1
189.617	2091.16
189.693	2087.41
189.768	2088.79
189.844	2113.68
189.92	2103.26
189.996	2112.68
190.071	2127.28
190.147	2129.62
190.223	2134.47
190.298	2129.33
190.374	2116.87
190.45	2126
190.526	2136.85
190.601	2133.61
190.677	2134.7
190.753	2166.55
190.828	2169.78
190.904	2184.96
190.98	2200.81
191.055	2211.84
191.131	2202.23
191.207	2219.26
191.282	2231.25
191.358	2223.16
191.433	2209.03
191.509	2221.06
191.585	2218.82
191.66	2219.44
191.736	2225.43
191.811	2218.73
191.887	2236.43
191.963	2259.74
192.038	2267.78
192.114	2267.74
192.189	2273.45
192.265	2270.64
192.34	2245.65
192.416	2244.84
192.491	2241.27
192.567	2241.27
192.642	2244.31
192.718	2247.5
192.793	2234.75
192.869	2228.75
192.944	2229.9
193.02	2234.8
193.095	2241.84
193.171	2247.88
193.246	2245.74
193.322	2243.55
193.397	2244.27
193.473	2229.99
193.548	2213.76
193.624	2221.85
193.699	2221.38
193.775	2235.94
193.85	2235.89
193.925	2243.6
194.001	2245.89
194.076	2235.28
194.152	2226.52
194.227	2219.48
194.302	2211.67
194.378	2219.57
194.453	2215.53
194.529	2229.47
194.604	2216.72
194.679	2208.01
194.755	2188.27
194.83	2197.27
194.905	2192.41
194.981	2202.12
195.056	2197.7
195.131	2201.08
195.207	2198.65
195.282	2186.71
195.357	2166.96
195.433	2184.56
195.508	2176.04
195.583	2180.66
195.659	2198.83
195.734	2206.78
195.809	2203.79
195.884	2207.83
195.96	2207.88
196.035	2225.86
196.11	2222.01
196.185	2234.43
196.261	2236.28
196.336	2267.83
196.411	2257.22
196.486	2265.02
196.561	2256.02
196.637	2262.3
196.712	2280.87
196.787	2284.2
196.862	2299.43
196.937	2308.8
197.013	2315.27
197.088	2324.84
197.163	2348.45
197.238	2365.98
197.313	2366.7
197.388	2382.26
197.464	2413.92
197.539	2424.77
197.614	2418.3
197.689	2429.77
197.764	2446.44
197.839	2468.72
197.914	2460.72
197.989	2481.91
198.065	2495.52
198.14	2547.45
198.215	2575.17
198.29	2587.75
198.365	2597.46
198.44	2613.7
198.515	2645.19
198.59	2657.91
198.665	2686.34
198.74	2694.16
198.815	2692.3
198.89	2715.55
198.965	2744.14
199.04	2740.9
199.115	2755.14
199.19	2797.55
199.265	2800.59
199.34	2808.46
199.415	2840.97
199.49	2862.83
199.565	2873.32
199.64	2895.48
199.715	2890.99
199.79	2898.48
199.865	2905.96
199.94	2910.3
200.015	2941.38
200.09	2947.87
200.165	2954.4
200.24	2961.03
200.315	3001.96
200.39	3019.94
200.464	3024.56
200.539	3026.57
200.614	3045.49
200.689	3068.04
200.764	3073.1
200.839	3092.21
200.914	3097.55
200.989	3088.39
201.063	3102.31
201.138	3087.54
201.213	3090.98
201.288	3074.57
201.363	3081.53
201.438	3079.82
201.512	3092.21
201.587	3071.75
201.662	3074.71
201.737	3089.11
201.812	3095.79
201.886	3059.95
201.961	3070.73
202.036	3059.63
202.111	3057.86
202.186	3028.27
202.26	3015.68
202.335	2993.98
202.41	2990.74
202.485	2977.44
202.559	2963.28
202.634	2941.54
202.709	2951.36
202.784	2935.44
202.858	2936.06
202.933	2916.85
203.008	2913.41
203.082	2898.07
203.157	2903.45
203.232	2863.52
203.306	2845.4
203.381	2819.8
203.456	2802.22
203.53	2782.8
203.605	2768.04
203.68	2751.59
203.754	2754.4
203.829	2744.2
203.904	2733.53
203.978	2729.38
204.053	2741.58
204.127	2735.63
204.202	2747.07
204.277	2743.16
204.351	2747.5
204.426	2754.93
204.5	2761.79
204.575	2744.26
204.65	2771.58
204.724	2782.69
204.799	2812.08
204.873	2827.86
204.948	2846.64
205.022	2860.56
205.097	2876.97
205.171	2919.48
205.246	2956.54
205.32	2983.38
205.395	3016.57
205.469	3040.59
205.544	3080.95
205.618	3101.32
205.693	3156.81
205.767	3180.95
205.842	3240.4
205.916	3278.04
205.991	3309.78
206.065	3363.76
206.14	3428.49
206.214	3472.29
206.289	3515.75
206.363	3582.89
206.438	3644.99
206.512	3712.3
206.586	3788.09
206.661	3854.48
206.735	3895.56
206.81	3955.13
206.884	4033.64
206.958	4081.09
207.033	4164.1
207.107	4237.68
207.181	4336.65
207.256	4395.49
207.33	4486.95
207.405	4580.7
207.479	4675.17
207.553	4762.22
207.628	4821.65
207.702	4911.46
207.776	4987.27
207.851	5072.04
207.925	5171.92
207.999	5245.27
208.073	5323.62
208.148	5417.56
208.222	5494.65
208.296	5613.03
208.371	5726.63
208.445	5827.63
208.519	5948.7
208.593	6051.98
208.668	6137.87
208.742	6234.03
208.816	6328.55
208.89	6437.87
208.965	6524.86
209.039	6624.36
209.113	6734.95
209.187	6850.07
209.261	6940.06
209.336	7049.78
209.41	7165.05
209.484	7249.84
209.558	7374.99
209.632	7491.88
209.707	7600.29
209.781	7717.55
209.855	7835.42
209.929	7940.49
210.003	8039.71
210.077	8127.53
210.151	8266.64
210.226	8403.38
210.3	8525.2
210.374	8642.92
210.448	8739.47
210.522	8844.83
210.596	8951.69
210.67	9051.56
210.744	9193.2
210.818	9314.06
210.892	9432.7
210.966	9519.03
211.041	9632.87
211.115	9716.51
211.189	9826.95
211.263	9927.13
211.337	10023.12
211.411	10117.63
211.485	10207.15
211.559	10305.75
211.633	10408.05
211.707	10467.85
211.781	10554.49
211.855	10610.67
211.929	10689.49
212.003	10756.94
212.077	10852.98
212.151	10946.75
212.225	11045.92
212.299	11117.97
212.373	11198.74
212.447	11276.14
212.52	11389.01
212.594	11473.16
212.668	11565.6
212.742	11633.94
212.816	11710.91
212.89	11791.74
212.964	11872.43
213.038	11955.38
213.112	12052.41
213.186	12139.27
213.26	12194.02
213.333	12229.01
213.407	12310.33
213.481	12387.16
213.555	12476.24
213.629	12536.83
213.703	12598.15
213.777	12676.29
213.85	12733.7
213.924	12835.41
213.998	12914.42
214.072	12976.56
214.146	13041.59
214.219	13113.99
214.293	13173.72
214.367	13245.36
214.441	13318.48
214.515	13369.54
214.588	13402.56
214.662	13435.34
214.736	13484.85
214.81	13561.4
214.883	13633.22
214.957	13682.68
215.031	13741.69
215.105	13784.11
215.178	13834.87
215.252	13890.45
215.326	13918.32
215.4	13958.33
215.473	13975.01
215.547	14009.57
215.621	14060.28
215.694	14117.12
215.768	14149.66
215.842	14198.58
215.915	14233.24
215.989	14263.47
216.063	14314.23
216.136	14372.85
216.21	14425.29
216.284	14491.05
216.357	14553.71
216.431	14613
216.504	14674.95
216.578	14750.05
216.652	14810.59
216.725	14866.27
216.799	14928.16
216.873	14984.22
216.946	15046.26
217.02	15092.92
217.093	15140.35
217.167	15162.04
217.24	15197.14
217.314	15239.51
217.387	15286.21
217.461	15334.66
217.535	15401.51
217.608	15440.85
217.682	15496.81
217.755	15553.3
217.829	15594.17
217.902	15633.12
217.976	15674.52
218.049	15708.84
218.123	15748.32
218.196	15798.78
218.27	15840.91
218.343	15873.3
218.417	15918.56
218.49	15961.41
218.563	16020.4
218.637	16073.66
218.71	16153.28
218.784	16214.64
218.857	16281.92
218.931	16331.81
219.004	16383.67
219.077	16431.96
219.151	16483
219.224	16520.16
219.298	16572.79
219.371	16631.69
219.444	16668.08
219.518	16712.32
219.591	16770.06
219.665	16838.35
219.738	16892.47
219.811	16935.61
219.885	16991.9
219.958	17046.7
220.031	17098.89
220.105	17152
220.178	17199.28
220.251	17235.71
220.325	17280.73
220.398	17324.2
220.471	17380.68
220.544	17429.74
220.618	17463.04
220.691	17503.91
220.764	17553.07
220.838	17603.52
220.911	17637.55
220.984	17708.15
221.057	17772.87
221.131	17816.58
221.204	17821.06
221.277	17883.47
221.35	17951.18
221.424	17981.01
221.497	18027.56
221.57	18071.37
221.643	18115.7
221.716	18163.22
221.79	18195.17
221.863	18229.09
221.936	18270.73
222.009	18306.44
222.082	18353.62
222.155	18389.76
222.229	18451.49
222.302	18502.19
222.375	18535.87
222.448	18586.86
222.521	18617.7
222.594	18641.22
222.667	18668.25
222.74	18719.67
222.814	18734.76
222.887	18768.1
222.96	18823.23
223.033	18867.81
223.106	18896.14
223.179	18936.14
223.252	18969.82
223.325	19006.88
223.398	19031.99
223.471	19059.8
223.544	19079.94
223.617	19109.82
223.69	19150.3
223.763	19165.28
223.837	19192.37
223.91	19223.83
223.983	19229.86
224.056	19241.71
224.129	19272.55
224.202	19307.01
224.275	19329.75
224.348	19353.27
224.42	19355.34
224.493	19353.37
224.566	19365.66
224.639	19398.62
224.712	19410.86
224.785	19429.12
224.858	19434.71
224.931	19456.35
225.004	19474.08
225.077	19503.77
225.15	19498.27
225.223	19510.9
225.296	19556.34
225.369	19556.25
225.442	19557.55
225.514	19579.23
225.587	19595.67
225.66	19615.62
225.733	19640.82
225.806	19656.24
225.879	19672.96
225.952	19687.23
226.025	19718.36
226.097	19758.45
226.17	19774.6
226.243	19770.65
226.316	19779.56
226.389	19813.87
226.461	19833.29
226.534	19852.04
226.607	19868.18
226.68	19911.27
226.753	19935.31
226.825	19913.24
226.898	19948.47
226.971	19967.99
227.044	19981.19
227.117	20002.93
227.189	20015.74
227.262	20038.64
227.335	20055.17
227.407	20058.59
227.48	20068.56
227.553	20083.74
227.626	20073.86
227.698	20077.81
227.771	20099.89
227.844	20098.87
227.916	20103.21
227.989	20095.45
228.062	20102.73
228.134	20141.19
228.207	20149.38
228.28	20141.67
228.352	20154.1
228.425	20148.22
228.498	20164.99
228.57	20164.17
228.643	20181.04
228.716	20182.39
228.788	20171.84
228.861	20168.32
228.934	20186.44
229.006	20192.61
229.079	20194.2
229.151	20179.89
229.224	20165.24
229.296	20166.25
229.369	20200.03
229.442	20220.22
229.514	20224.66
229.587	20243.74
229.659	20218.25
229.732	20216.08
229.804	20236.94
229.877	20264.51
229.949	20284.37
230.022	20308.41
230.094	20311.45
230.167	20312.41
230.239	20311.45
230.312	20315.21
230.384	20340.46
230.457	20346.68
230.529	20352.8
230.602	20359.31
230.674	20379.59
230.747	20397.52
230.819	20413.38
230.892	20384.32
230.964	20378.77
231.037	20378.97
231.109	20365.33
231.181	20369.62
231.254	20353.96
231.326	20339.4
231.399	20332.46
231.471	20313.23
231.544	20280.51
231.616	20294.2
231.688	20297.81
231.761	20287.93
231.833	20276.32
231.905	20250.73
231.978	20244.12
232.05	20233.47
232.122	20225.86
232.195	20215.64
232.267	20226.63
232.339	20207.11
232.412	20217.23
232.484	20201.62
232.556	20192.22
232.629	20212.7
232.701	20219.5
232.773	20214.29
232.846	20210.29
232.918	20201.96
232.99	20200.8
233.062	20204.03
233.135	20191.89
233.207	20167.31
233.279	20168.75
233.351	20164.42
233.424	20146.25
233.496	20122.87
233.568	20135.26
233.64	20106.06
233.713	20094.15
233.785	20075.02
233.857	20062.88
233.929	20033.96
234.001	20040.18
234.074	20049.53
234.146	20007.5
234.218	19983.07
234.29	19971.7
234.362	19948.61
234.434	19913.24
234.507	19883.56
234.579	19842.98
234.651	19820.52
234.723	19806.6
234.795	19787.42
234.867	19770.31
234.939	19770.16
235.012	19760.43
235.084	19738.7
235.156	19727.85
235.228	19697.69
235.3	19670.31
235.372	19651.86
235.444	19639.23
235.516	19603.76
235.588	19583.96
235.66	19563.19
235.732	19529.31
235.804	19562.03
235.876	19556.92
235.948	19557.65
236.02	19536.63
236.092	19520.59
236.164	19501.79
236.236	19478.61
236.308	19446.52
236.38	19430.42
236.452	19395.44
236.524	19372.98
236.596	19368.98
236.668	19357.32
236.74	19330.86
236.812	19313.37
236.884	19303.68
236.956	19286.53
237.028	19244.7
237.1	19207.31
237.172	19206.15
237.244	19194.78
237.316	19135.02
237.388	19091.26
237.46	19050.83
237.532	19039.65
237.604	19009.53
237.675	19002.02
237.747	18987.61
237.819	18966.45
237.891	18935.32
237.963	18903.56
238.035	18862.41
238.107	18796
238.178	18776.1
238.25	18750.85
238.322	18741.21
238.394	18686.18
238.466	18651.82
238.538	18626.52
238.609	18605.17
238.681	18551.83
238.753	18520.02
238.825	18487.06
238.897	18471.01
238.968	18469.52
239.04	18429.86
239.112	18426.82
239.184	18378.39
239.255	18339.64
239.327	18308.37
239.399	18284.47
239.471	18268.18
239.542	18248.56
239.614	18238.11
239.686	18187.46
239.758	18177.72
239.829	18135.17
239.901	18123.85
239.973	18097.49
240.044	18073.68
240.116	18049.83
240.188	18015.9
240.259	17978.7
240.331	17945.69
240.403	17913.25
240.474	17852.63
240.546	17812.92
240.618	17764.77
240.689	17730.32
240.761	17700
240.833	17691.52
240.904	17648.49
240.976	17610.22
241.048	17590.27
241.119	17569.74
241.191	17543.91
241.262	17524.97
241.334	17491.91
241.405	17468.39
241.477	17424.59
241.549	17398.71
241.62	17367
241.692	17335.77
241.763	17326.95
241.835	17290.95
241.906	17261.02
241.978	17223.81
242.049	17213.26
242.121	17188.39
242.192	17179.28
242.264	17130.17
242.335	17072.68
242.407	17047.42
242.478	17016.24
242.55	16982.31
242.621	16934.07
242.693	16902.65
242.764	16854.16
242.836	16819.9
242.907	16783.08
242.979	16769.44
243.05	16746.69
243.122	16712.13
243.193	16683.36
243.264	16626.97
243.336	16598.05
243.407	16577.57
243.479	16564.99
243.55	16531.59
243.622	16503.88
243.693	16452.98
243.764	16442.43
243.836	16397.84
243.907	16362.18
243.978	16325.69
244.05	16300.05
244.121	16250.6
244.192	16223.9
244.264	16174.93
244.335	16142.73
244.407	16095.11
244.478	16055.3
244.549	16017.61
244.62	15973.46
244.692	15946.61
244.763	15917.02
244.834	15879.95
244.906	15831.42
244.977	15795.27
245.048	15782.64
245.119	15746.44
245.191	15711.83
245.262	15661.85
245.333	15657.46
245.405	15640.45
245.476	15616.3
245.547	15585.26
245.618	15563.18
245.689	15528
245.761	15509.92
245.832	15480.47
245.903	15464.37
245.974	15438.44
246.045	15397.47
246.117	15381.37
246.188	15331.09
246.259	15293.25
246.33	15259.08
246.401	15222.78
246.473	15187.54
246.544	15141.13
246.615	15114.13
246.686	15085.02
246.757	15068.1
246.828	15021.25
246.899	15000.08
246.97	14947.88
247.042	14910.18
247.113	14891
247.184	14883.58
247.255	14849.69
247.326	14819.47
247.397	14772.18
247.468	14741.04
247.539	14716.21
247.61	14677.55
247.681	14663.52
247.752	14646.22
247.823	14610.16
247.894	14590.06
247.965	14542.53
248.037	14512.35
248.108	14468.87
248.179	14431.85
248.25	14399.12
248.321	14377.91
248.392	14337.56
248.463	14339.3
248.534	14303.38
248.605	14290.03
248.675	14259.95
248.746	14241.3
248.817	14222.59
248.888	14210.49
248.959	14163.73
249.03	14144.26
249.101	14117.07
249.172	14082.75
249.243	14033.96
249.314	14019.4
249.385	13997.57
249.456	13979.2
249.527	13946.28
249.598	13927.09
249.669	13912.92
249.739	13888.43
249.81	13874.3
249.881	13834.68
249.952	13805.22
250.023	13783.39
250.094	13730.36
250.165	13697.87
250.235	13662.2
250.306	13630.43
250.377	13589.45
250.448	13578.7
250.519	13531.89
250.59	13520.95
250.66	13495.02
250.731	13485.52
250.802	13457.37
250.873	13427.96
250.944	13412.73
251.014	13385.78
251.085	13383.32
251.156	13354.49
251.227	13347.99
251.297	13330.53
251.368	13313.66
251.439	13304.94
251.51	13295.34
251.58	13267.62
251.651	13228.1
251.722	13213.59
251.792	13166.1
251.863	13144.02
251.934	13134.14
252.005	13141.85
252.075	13113.36
252.146	13100.01
252.217	13092.2
252.287	13085.74
252.358	13058.84
252.429	13053.25
252.499	13022.93
252.57	13003.41
252.641	12994.49
252.711	12964.02
252.782	12920.35
252.852	12916.59
252.923	12882.79
252.994	12854.79
253.064	12846.16
253.135	12814.49
253.205	12789.66
253.276	12788.31
253.347	12790.14
253.417	12754.76
253.488	12726.56
253.558	12701.25
253.629	12680.48
253.699	12659.17
253.77	12636.95
253.841	12619.83
253.911	12591.59
253.982	12574.09
254.052	12557.41
254.123	12538.56
254.193	12517.54
254.264	12535.19
254.334	12500.14
254.405	12468.23
254.475	12430.78
254.546	12403.11
254.616	12404.51
254.687	12390
254.757	12377.42
254.827	12350.23
254.898	12338.76
254.968	12312.05
255.039	12286.6
255.109	12274.21
255.18	12242.45
255.25	12203.11
255.321	12188.03
255.391	12156.16
255.461	12160.79
255.532	12112.78
255.602	12085.5
255.673	12046.02
255.743	12008.33
255.813	11972.51
255.884	11965.91
255.954	11962.05
256.024	11963.36
256.095	11940.22
256.165	11907.54
256.235	11892.6
256.306	11866.47
256.376	11860.2
256.446	11855.48
256.517	11842.95
256.587	11831.62
256.657	11815.57
256.728	11805.16
256.798	11783.04
256.868	11761.54
256.938	11730.89
257.009	11729.68
257.079	11714.31
257.149	11730.5
257.219	11694.3
257.29	11672.52
257.36	11630.49
257.43	11622.59
257.5	11581.67
257.571	11555.88
257.641	11542.77
257.711	11510.58
257.781	11499.35
257.852	11483.01
257.922	11440.07
257.992	11418.09
258.062	11393.12
258.132	11387.15
258.202	11362.86
258.273	11353.7
258.343	11353.51
258.413	11326.52
258.483	11299.33
258.553	11266.03
258.623	11233.11
258.693	11228.25
258.764	11233.31
258.834	11241.21
258.904	11225.31
258.974	11197.93
259.044	11186.66
259.114	11176.34
259.184	11157.65
259.254	11135.33
259.324	11090.32
259.394	11074.37
259.464	11074.61
259.535	11053.46
259.605	11023.43
259.675	10999.29
259.745	10978.81
259.815	10951.53
259.885	10929.08
259.955	10944.55
260.025	10919.64
260.095	10900.02
260.165	10886.05
260.235	10878.77
260.305	10857.52
260.375	10820.37
260.445	10831.55
260.515	10824.08
260.585	10820.8
260.655	10811.26
260.725	10805.67
260.795	10800.9
260.865	10816.75
260.934	10786.25
261.004	10779.7
261.074	10765.77
261.144	10763.27
261.214	10760.71
261.284	10743.41
261.354	10738.98
261.424	10710.69
261.494	10722.5
261.564	10711.12
261.634	10703.03
261.703	10677.44
261.773	10657.35
261.843	10661.3
261.913	10641.5
261.983	10614.13
262.053	10597.65
262.123	10577.03
262.192	10547.16
262.262	10542.34
262.332	10506.54
262.402	10498.06
262.472	10485.1
262.541	10448.53
262.611	10444
262.681	10417.89
262.751	10415
262.821	10398.81
262.89	10373.51
262.96	10359.2
263.03	10363.06
263.1	10350.58
263.169	10326.15
263.239	10321.72
263.309	10317.92
263.379	10308.04
263.448	10294.36
263.518	10283.18
263.588	10268.63
263.657	10275.81
263.727	10269.31
263.797	10253.84
263.867	10240.64
263.936	10205.43
264.006	10208.03
264.076	10194.49
264.145	10174.84
264.215	10149.06
264.285	10140.3
264.354	10104.02
264.424	10079.17
264.494	10043.66
264.563	10025.55
264.633	10038.12
264.702	10030.85
264.772	9991.49
264.842	9975.88
264.911	9975.01
264.981	9950.88
265.05	9943.89
265.12	9923.04
265.19	9912.05
265.259	9905.02
265.329	9899.29
265.398	9888.98
265.468	9901.79
265.537	9875.93
265.607	9871.64
265.676	9874.24
265.746	9866.54
265.815	9865.43
265.885	9854.3
265.955	9832.34
266.024	9806.57
266.094	9767.7
266.163	9765.49
266.232	9773
266.302	9759.9
266.371	9740.39
266.441	9720.5
266.51	9715.2
266.58	9698.35
266.649	9676.67
266.719	9679.56
266.788	9667.33
266.858	9677.15
266.927	9646.91
266.996	9645.03
267.066	9633.04
267.135	9601.15
267.205	9596.19
267.274	9584.59
267.343	9586.56
267.413	9576.11
267.482	9575.87
267.552	9583.87
267.621	9550.06
267.69	9522.41
267.76	9508.35
267.829	9501.61
267.898	9491.98
267.968	9462.8
268.037	9456.59
268.106	9450.95
268.176	9423.21
268.245	9414.01
268.314	9397.11
268.384	9389.98
268.453	9378.47
268.522	9376.55
268.592	9380.4
268.661	9362.73
268.73	9354.68
268.799	9334.94
268.869	9344.67
268.938	9321.89
269.007	9295.65
269.076	9287.61
269.146	9287.32
269.215	9280.63
269.284	9286.12
269.353	9274.37
269.422	9266.62
269.492	9251.79
269.561	9213.47
269.63	9207.35
269.699	9190.21
269.768	9180.39
269.838	9176.54
269.907	9167.1
269.976	9140.62
270.045	9103.45
270.114	9102.25
270.183	9088.92
270.253	9080.88
270.322	9053.43
270.391	9048.04
270.46	9053.1
270.529	9050.64
270.598	9043.52
270.667	9028.59
270.736	9005.38
270.806	8999.17
270.875	9001.19
270.944	8989.93
271.013	9012.7
271.082	9004.18
271.151	9002.06
271.22	8976.31
271.289	8965.19
271.358	8956.76
271.427	8955.75
271.496	8956.09
271.565	8935.05
271.634	8927.35
271.703	8956.14
271.772	8956.09
271.841	8945.7
271.91	8932.07
271.979	8921.48
272.048	8898.86
272.117	8905.21
272.186	8885.33
272.255	8887.59
272.324	8888.32
272.393	8879.22
272.462	8859.72
272.531	8848.79
272.6	8835.8
272.669	8836.81
272.738	8824.05
272.807	8815.53
272.876	8796.38
272.945	8823.62
273.013	8824.49
273.082	8831.9
273.151	8784.05
273.22	8780.05
273.289	8770.18
273.358	8776.68
273.427	8773.55
273.496	8772.11
273.564	8766.43
273.633	8770.62
273.702	8751.8
273.771	8741.64
273.84	8740.29
273.909	8738.66
273.977	8741.16
274.046	8729.75
274.115	8734.71
274.184	8712.29
274.253	8711.03
274.322	8721.33
274.39	8691.15
274.459	8681.58
274.528	8653.47
274.597	8649.76
274.665	8646.68
274.734	8654.34
274.803	8641.05
274.872	8629.11
274.94	8616.55
275.009	8672.8
275.078	8658.03
275.147	8653.84
275.215	8649.89
275.284	8657.54
275.353	8645.85
275.421	8621.88
275.49	8635.7
275.559	8632.47
275.627	8634.25
275.696	8625.11
275.765	8620.44
275.833	8607.11
275.902	8604.27
275.971	8619.09
276.039	8635.26
276.108	8642.87
276.177	8639.6
276.245	8629.68
276.314	8630.26
276.383	8642.34
276.451	8571.61
276.52	8577.96
276.588	8589.03
276.657	8587.97
276.725	8576.9
276.794	8585.9
276.863	8593.31
276.931	8568.86
277	8572.47
277.068	8583.3
277.137	8599.18
277.205	8594.03
277.274	8616.6
277.342	8623.14
277.411	8601.25
277.48	8584.31
277.548	8564.72
277.617	8565.49
277.685	8555
277.754	8554.28
277.822	8539.94
277.89	8552.21
277.959	8541.39
278.027	8531.04
278.096	8523.29
278.164	8548.08
278.233	8535.28
278.301	8528.64
278.37	8538.65
278.438	8522.62
278.507	8518.77
278.575	8495.82
278.643	8492.59
278.712	8474.69
278.78	8464.92
278.849	8475.55
278.917	8488.64
278.985	8493.12
279.054	8496.49
279.122	8508.23
279.191	8507.46
279.259	8505.29
279.327	8484.31
279.396	8505.82
279.464	8496.68
279.532	8501.01
279.601	8502.98
279.669	8498.7
279.737	8514.25
279.806	8515.64
279.874	8520.93
279.942	8517.42
280.011	8509.29
280.079	8514.05
280.147	8530.13
280.215	8537.39
280.284	8532.44
280.352	8516.75
280.42	8520.65
280.488	8505.63
280.557	8501.64
280.625	8501.11
280.693	8503.47
280.761	8513.62
280.83	8489.85
280.898	8504.57
280.966	8479.94
281.034	8439.46
281.102	8421.52
281.171	8410.5
281.239	8414.2
281.307	8409.2
281.375	8405.74
281.443	8429.22
281.512	8429.84
281.58	8437.35
281.648	8412.76
281.716	8409.88
281.784	8406.56
281.852	8395.68
281.92	8397.03
281.989	8412.81
282.057	8395.97
282.125	8440.83
282.193	8436.26
282.261	8439.15
282.329	8428.76
282.397	8440.98
282.465	8444.92
282.533	8464.69
282.601	8456.27
282.67	8435.82
282.738	8429.71
282.806	8442.65
282.874	8431.3
282.942	8435.58
283.01	8429.37
283.078	8437.69
283.146	8438.18
283.214	8451.41
283.282	8454.34
283.35	8464.06
283.418	8458.24
283.486	8467
283.554	8422.09
283.622	8420.74
283.69	8424.45
283.758	8422.91
283.826	8434.36
283.894	8447.01
283.962	8469.1
284.03	8484.36
284.098	8485.71
284.165	8478.44
284.233	8469.3
284.301	8464.2
284.369	8449.71
284.437	8435.42
284.505	8434.12
284.573	8451.88
284.641	8434.99
284.709	8443.26
284.777	8432.48
284.845	8431.52
284.912	8434.17
284.98	8437.63
285.048	8430.42
285.116	8433.21
285.184	8446.1
285.252	8440.91
285.319	8420.7
285.387	8407.03
285.455	8388.79
285.523	8399.67
285.591	8400.34
285.659	8401.83
285.726	8412.75
285.794	8400.1
285.862	8401.3
285.93	8403.23
285.997	8395.67
286.065	8395.48
286.133	8383.16
286.201	8383.4
286.269	8371.08
286.336	8363.24
286.404	8354.97
286.472	8361.8
286.539	8336.69
286.607	8318.54
286.675	8312.96
286.743	8327.2
286.81	8324.51
286.878	8338.37
286.946	8328.79
287.013	8328.65
287.081	8331.97
287.149	8321.62
287.216	8340.38
287.284	8337.98
287.352	8333.94
287.419	8332.3
287.487	8350.2
287.555	8357.03
287.622	8353.86
287.69	8359.1
287.758	8376.19
287.825	8375.95
287.893	8367.81
287.96	8378.59
288.028	8395.62
288.096	8407.46
288.163	8410.01
288.231	8399.95
288.298	8400.1
288.366	8410.01
288.433	8407.89
288.501	8401.4
288.569	8405.78
288.636	8404.91
288.704	8419.2
288.771	8433.01
288.839	8419.2
288.906	8409.24
288.974	8417.09
289.041	8408
289.109	8395.34
289.176	8400.35
289.244	8400.83
289.311	8411.7
289.379	8420.22
289.446	8414.25
289.514	8415.02
289.581	8409.2
289.649	8412.18
289.716	8415.55
289.783	8410.59
289.851	8429.74
289.918	8428.49
289.986	8432.15
290.053	8435.13
290.121	8427.82
290.188	8426.76
290.255	8453.9
290.323	8449.76
290.39	8446.2
290.458	8454.95
290.525	8472.04
290.592	8462.84
290.66	8478.29
290.727	8471.31
290.794	8489.89
290.862	8493.11
290.929	8490.13
290.996	8495.08
291.064	8499.46
291.131	8506.54
291.198	8517.7
291.266	8514.09
291.333	8512.55
291.4	8515.49
291.468	8527.38
291.535	8521.51
291.602	8527.38
291.669	8527.95
291.737	8530.02
291.804	8529.45
291.871	8547.59
291.938	8555.43
292.006	8583.35
292.073	8591.39
292.14	8603.66
292.207	8591.92
292.275	8594.47
292.342	8608.28
292.409	8632.06
292.476	8663.63
292.543	8648.66
292.611	8652.52
292.678	8670.03
292.745	8697.8
292.812	8715.75
292.879	8719.89
292.946	8737.84
293.014	8745.83
293.081	8749.11
293.148	8761.19
293.215	8777.98
293.282	8779.57
293.349	8788.43
293.416	8766.86
293.484	8775.53
293.551	8786.55
293.618	8806.48
293.685	8827.9
293.752	8813.55
293.819	8810.81
293.886	8792.32
293.953	8808.16
294.02	8819.52
294.087	8828.47
294.154	8827.03
294.221	8839.35
294.288	8837.57
294.356	8849.36
294.423	8862.65
294.49	8848.31
294.557	8861.55
294.624	8851.97
294.691	8867.03
294.758	8870.21
294.825	8878.34
294.892	8867.32
294.959	8865.01
295.026	8869.58
295.093	8868.72
295.16	8877.09
295.226	8877.81
295.293	8907.57
295.36	8912.81
295.427	8921.29
295.494	8935.06
295.561	8941.46
295.628	8957.2
295.695	8977.42
295.762	8975.26
295.829	8976.65
295.896	9008.23
295.963	9020.07
296.03	9034.32
296.096	9044.77
296.163	9056.76
296.23	9078.08
296.297	9092.14
296.364	9098.83
296.431	9104.8
296.498	9098.54
296.564	9123.24
296.631	9125.07
296.698	9109.56
296.765	9135.32
296.832	9118.33
296.899	9106.48
296.965	9122.32
297.032	9104.12
297.099	9112.45
297.166	9123.52
297.233	9121.36
297.299	9104.27
297.366	9110.05
297.433	9107.25
297.5	9112.79
297.566	9112.45
297.633	9112.6
297.7	9119.19
297.767	9113.9
297.833	9116.02
297.9	9125.26
297.967	9106.2
298.033	9121.12
298.1	9149.29
298.167	9132.53
298.234	9143.32
298.3	9151.55
298.367	9146.93
298.434	9155.55
298.5	9149.86
298.567	9142.45
298.634	9144.86
298.7	9167.87
298.767	9166.18
298.834	9186.02
298.9	9177.06
298.967	9164.4
299.033	9170.08
299.1	9185.69
299.167	9200.75
299.233	9201.14
299.3	9212.6
299.366	9229.3
299.433	9244.62
299.5	9216.4
299.566	9227.09
299.633	9246.35
299.699	9261.8
299.766	9259.25
299.832	9265.71
299.899	9272.06
299.965	9291.47
300.032	9285.45
300.099	9291.37
300.165	9301.67
300.232	9295.75
300.298	9303.74
300.365	9320.74
300.431	9317.71
300.498	9315.01
300.564	9327.29
300.631	9335.43
300.697	9346.41
300.763	9351.85
300.83	9345.49
300.896	9360.51
300.963	9371.88
301.029	9375.78
301.096	9372.65
301.162	9386.08
301.229	9378.33
301.295	9372.07
301.361	9370.43
301.428	9378.04
301.494	9367.78
301.561	9369.51
301.627	9374.71
301.693	9372.16
301.76	9373.7
301.826	9375.05
301.892	9386.9
301.959	9391.28
302.025	9393.11
302.092	9385.21
302.158	9383.72
302.224	9385.84
302.291	9379.39
302.357	9373.51
302.423	9363.88
302.49	9355.55
302.556	9364.6
302.622	9363.45
302.688	9371.49
302.755	9385.7
302.821	9390.03
302.887	9399.42
302.954	9389.6
303.02	9397.06
303.086	9406.88
303.152	9408.95
303.219	9413.38
303.285	9411.17
303.351	9415.89
303.417	9418.92
303.483	9413.14
303.55	9409.97
303.616	9415.6
303.682	9415.6
303.748	9404.14
303.815	9424.95
303.881	9435.15
303.947	9422.63
304.013	9426.05
304.079	9418.3
304.145	9396.82
304.212	9404.72
304.278	9394.51
304.344	9395.43
304.41	9380.4
304.476	9369.66
304.542	9370.29
304.608	9364.27
304.674	9349.49
304.741	9347.66
304.807	9346.89
304.873	9352.62
304.939	9377.08
305.005	9357.05
305.071	9354.54
305.137	9358.01
305.203	9332.97
305.269	9332.58
305.335	9343.9
305.401	9343.08
305.467	9344.04
305.533	9354.3
305.599	9354.78
305.666	9362.44
305.732	9364.65
305.798	9380.01
305.864	9406.5
305.93	9408.48
305.996	9413.82
306.062	9415.31
306.128	9409.44
306.194	9399.18
306.259	9398.99
306.325	9380.3
306.391	9390.9
306.457	9403.85
306.523	9411.17
306.589	9435.39
306.655	9429.52
306.721	9414.25
306.787	9403.42
306.853	9412.66
306.919	9402.36
306.985	9397.74
307.051	9394.46
307.117	9387.05
307.183	9379.68
307.248	9346.21
307.314	9349.77
307.38	9353.05
307.446	9359.12
307.512	9353.72
307.578	9353.53
307.644	9348.81
307.709	9353.91
307.775	9350.4
307.841	9347.03
307.907	9352.86
307.973	9329.45
308.039	9331.23
308.104	9337.97
308.17	9339.42
308.236	9326.42
308.302	9321.27
308.368	9307.25
308.433	9308.31
308.499	9302.63
308.565	9294.64
308.631	9301.57
308.696	9274.32
308.762	9258.82
308.828	9249.04
308.894	9226.56
308.959	9213.75
309.025	9201.96
309.091	9198.3
309.156	9190.5
309.222	9191.75
309.288	9173.98
309.354	9156.84
309.419	9149.09
309.485	9132
309.551	9134.88
309.616	9119.91
309.682	9117.07
309.748	9111.78
309.813	9105.56
309.879	9095.94
309.945	9083.13
310.01	9076.82
310.076	9082.79
310.141	9079.57
310.207	9069.55
310.273	9075.47
310.338	9077.64
310.404	9064.31
310.469	9050.3
310.535	9040.67
310.601	9009.95
310.666	9013.66
310.732	9023.33
310.797	9013.85
310.863	9001.77
310.928	8992.28
310.994	8998.44
311.059	8994.93
311.125	8992.72
311.191	8998.01
311.256	8992.19
311.322	8998.88
311.387	8978.9
311.453	9232.39
311.518	9209.91
311.584	9213.04
311.649	9218.09
311.715	9203.84
311.78	9205.58
311.846	9190.75
311.911	9193.2
311.976	9205.91
312.042	9188.29
312.107	9170.15
312.173	9160.61
312.238	9158.59
312.304	9155.8
312.369	9147.81
312.434	9142.37
312.5	9136.3
312.565	9105.83
312.631	9113.34
312.696	9101.16
312.761	9106.94
312.827	8839.83
312.892	8873.19
312.958	8861.4
313.023	8854.8
313.088	8860.72
313.154	8846.24
313.219	8841.47
313.284	8834.25
313.35	8828.14
313.415	8819.52
313.48	8815.62
313.546	8819.14
313.611	8833.24
313.676	8824.62
313.741	8813.84
313.807	8821.5
313.872	8821.88
313.937	8833.77
314.003	8841.04
314.068	8848.12
314.133	8851.87
314.198	8846.29
314.264	8829.63
314.329	8824.05
314.394	8820.19
314.459	8818.85
314.525	8841.47
314.59	8834.73
314.655	8815.91
314.72	8816.78
314.785	8822.12
314.851	8817.07
314.916	8800.17
314.981	8783.33
315.046	8778.9
315.111	8772.55
315.176	8760.9
315.242	8770.52
315.307	8767.11
315.372	8748.24
315.437	8733.65
315.502	8723.83
315.567	8734.28
315.632	8713.63
315.698	8720.51
315.763	8714.11
315.828	8701.31
315.893	8697.12
315.958	8699.43
316.023	8700.01
316.088	8680.56
316.153	8657.99
316.218	8657.32
316.283	8638.99
316.348	8619.79
316.413	8618.73
316.479	8606.51
316.544	8567.72
316.609	8533.02
316.674	8495.4
316.739	8459.6
316.804	8430.39
316.869	8395.61
316.934	8360.53
316.999	8331.42
317.064	8278.45
317.129	8237.17
317.194	8200.37
317.259	8151.19
317.324	8097.71
317.389	8053.6
317.454	8012.85
317.518	7982.31
317.583	7953.01
317.648	7933.34
317.713	7898.04
317.778	7833.4
317.843	7800.45
317.908	7766.5
317.973	7729.57
318.038	7703.46
318.103	7663.89
318.168	7639.8
318.233	7612.83
318.297	7562.82
318.362	7528.98
318.427	7489.08
318.492	7467.16
318.557	7423.18
318.622	7396.21
318.687	7378.72
318.751	7343.73
318.816	7318.73
318.881	7283.27
318.946	7230.88
319.011	7185.31
319.075	7146.1
319.14	7116.7
319.205	7072.64
319.27	7043.38
319.335	6997.5
319.399	6959.59
319.464	6938.5
319.529	6883.2
319.594	6839.2
319.658	6810.09
319.723	6767.44
319.788	6745.54
319.853	6690.06
319.917	6660.92
319.982	6608.28
320.047	6568.04
320.112	6539.9
320.176	6485.16
320.241	6452.47
320.306	6424.28
320.37	6382.43
320.435	6352.37
320.5	6321.03
320.564	6286.18
320.629	6241.55
320.694	6216.16
320.758	6172.59
320.823	6132.03
320.888	6104.15
320.952	6058.72
321.017	6018.27
321.082	5983.16
321.146	5946.12
321.211	5916.76
321.275	5875.03
321.34	5835.04
321.405	5794.9
321.469	5750.77
321.534	5715.97
321.598	5666
321.663	5631.71
321.727	5604.91
321.792	5554.62
321.857	5513.43
321.921	5469.81
321.986	5428.08
322.05	5367.84
322.115	5335.92
322.179	5289.63
322.244	5233.82
322.308	5205.31
322.373	5160.28
322.437	5115.49
322.502	5090.23
322.566	5040.94
322.631	5005.31
322.695	4965.52
322.76	4920.08
322.824	4880.76
322.889	4840.26
322.953	4796.47
323.018	4735.48
323.082	4670.39
323.146	4620.01
323.211	4568.27
323.275	4528.17
323.34	4485.46
323.404	4450.78
323.468	4402.74
323.533	4356.63
323.597	4313.27
323.662	4260.85
323.726	4228.18
323.79	4186.87
323.855	4120.23
323.919	4074.24
323.983	4034.08
324.048	3968.54
324.112	4093.3
324.177	3972.37
324.241	3763.27
324.305	3562.19
324.37	3363.17
324.434	3172.66
324.498	3132.3
324.562	3081.73
324.627	3021.12
324.691	2966.32
324.755	2903.85
324.82	2826.97
324.884	2753.07
324.948	2679.85
325.012	2584.65
325.077	2455.62
