Data from 20250703_urea_0.1M_MAYP1162681_03-51-04-914.txt Node
Date: Fri Jul 04 03:51:04 BST 2025
User: adleo
Spectrometer: MAYP116268
Trigger mode: 0
Integration Time (sec): 1.000000E0
Scans to average: 1
Electric dark correction enabled: true
Nonlinearity correction enabled: true
Boxcar width: 10
XAxis mode: Wavelengths
Number of Pixels in Spectrum: 2068
>>>>>Begin Spectral Data<<<<<
179.565	1291.49
179.642	1350.21
179.718	1397.91
179.795	1436.15
179.871	1471.88
179.948	1491.92
180.024	1515.83
180.101	1540.41
180.177	1554.2
180.254	1581.49
180.33	1605.05
180.407	1664.59
180.483	1766.03
180.56	1863.38
180.636	1953.97
180.712	1939.75
180.789	1949.83
180.865	1962.52
180.942	1975.93
181.018	1983.3
181.095	1995.72
181.171	1999.95
181.248	2001.66
181.324	2017.17
181.4	2027.35
181.477	2039.57
181.553	2054.83
181.63	2075.76
181.706	2092.22
181.782	2102.39
181.859	2100.06
181.935	2107.49
182.011	2103.3
182.088	2122.09
182.164	2142.89
182.24	2155.44
182.317	2167.43
182.393	2167.33
182.469	2181.99
182.546	2193.4
182.622	2199.59
182.698	2196.4
182.775	2210.86
182.851	2226.28
182.927	2218.05
183.003	2215.72
183.08	2206.72
183.156	2214.62
183.232	2211.01
183.308	2199.59
183.385	2209.24
183.461	2227.37
183.537	2226.56
183.613	2241.6
183.69	2231.8
183.766	2222.8
183.842	2233.41
183.918	2236.79
183.995	2248.45
184.071	2251.35
184.147	2243.88
184.223	2232.94
184.299	2245.89
184.375	2233.33
184.452	2239.28
184.528	2292.44
184.604	2299.72
184.68	2313.33
184.756	2319.18
184.832	2324.85
184.908	2332.08
184.985	2329.98
185.061	2312.38
185.137	2323.42
185.213	2311.95
185.289	2311.62
185.365	2298.34
185.441	2296.63
185.517	2310.1
185.593	2305.58
185.669	2302.35
185.745	2316.39
185.822	2335.89
185.898	2324.94
185.974	2337.03
186.05	2330.17
186.126	2294.66
186.202	2288.34
186.278	2286.81
186.354	2277.91
186.43	2284.58
186.506	2279.96
186.582	2280.87
186.658	2288.15
186.734	2266.45
186.81	2268.5
186.886	2272.73
186.962	2286.57
187.038	2281.72
187.114	2275.05
187.19	2283
187.266	2274.11
187.341	2271.87
187.417	2263.68
187.493	2265.4
187.569	2270.87
187.645	2262.97
187.721	2248.5
187.797	2257.11
187.873	2260.68
187.949	2256.21
188.025	2250.54
188.101	2253.49
188.176	2257.35
188.252	2253.21
188.328	2259.01
188.404	2258.63
188.48	2252.83
188.556	2247.07
188.632	2243.83
188.707	2244.55
188.783	2242.07
188.859	2235.37
188.935	2221.8
189.011	2229.8
189.086	2223.66
189.162	2214.1
189.238	2211.76
189.314	2215.24
189.39	2209.34
189.465	2204.25
189.541	2219.19
189.617	2202.01
189.693	2198.35
189.768	2202.54
189.844	2229.58
189.92	2221.68
189.996	2231.34
190.071	2244.19
190.147	2247.09
190.223	2258.71
190.298	2251.47
190.374	2238.34
190.45	2252.75
190.526	2265.03
190.601	2258.32
190.677	2261.5
190.753	2286.36
190.828	2291.21
190.904	2299.68
190.98	2313.87
191.055	2321.82
191.131	2313.96
191.207	2334.81
191.282	2346.27
191.358	2335.23
191.433	2316.52
191.509	2332.64
191.585	2328.17
191.66	2330.41
191.736	2335.83
191.811	2324.51
191.887	2341.46
191.963	2365.49
192.038	2373.35
192.114	2375.82
192.189	2377.2
192.265	2373.78
192.34	2352.25
192.416	2351.25
192.491	2349.73
192.567	2353.78
192.642	2358.59
192.718	2360.49
192.793	2347.93
192.869	2342.93
192.944	2346.78
193.02	2355.07
193.095	2358.97
193.171	2364.77
193.246	2362.73
193.322	2356.83
193.397	2359.35
193.473	2344.63
193.548	2324.78
193.624	2326.97
193.699	2323.64
193.775	2340.88
193.85	2338.02
193.925	2348.73
194.001	2347.93
194.076	2340.55
194.152	2330.5
194.227	2322.84
194.302	2310.94
194.378	2317.32
194.453	2314.65
194.529	2328.51
194.604	2317.61
194.679	2310.51
194.755	2290.11
194.83	2301.06
194.905	2302.48
194.981	2313.57
195.056	2305.25
195.131	2311.67
195.207	2310.96
195.282	2300.82
195.357	2281.59
195.433	2301
195.508	2285.96
195.583	2294.29
195.659	2308.81
195.734	2317.09
195.809	2314.71
195.884	2326.28
195.96	2325.47
196.035	2338.98
196.11	2335.27
196.185	2345.65
196.261	2353.02
196.336	2388.91
196.411	2376.82
196.486	2380.58
196.561	2375.53
196.637	2384.67
196.712	2403.57
196.787	2406.86
196.862	2422.32
196.937	2434.65
197.013	2440.13
197.088	2453.41
197.163	2473.7
197.238	2492.42
197.313	2489.85
197.388	2503.9
197.464	2533.14
197.539	2543.19
197.614	2540.62
197.689	2551.14
197.764	2568.05
197.839	2584.01
197.914	2576.86
197.989	2602.53
198.065	2617.44
198.14	2665.2
198.215	2693.92
198.29	2706.07
198.365	2720.7
198.44	2735.51
198.515	2763.63
198.59	2782.5
198.665	2808.18
198.74	2817.28
198.815	2817.71
198.89	2842.87
198.965	2874.24
199.04	2872.76
199.115	2892.63
199.19	2935
199.265	2939.34
199.34	2954.26
199.415	2994.08
199.49	3016.62
199.565	3023.59
199.64	3051.57
199.715	3049.57
199.79	3058.58
199.865	3064.64
199.94	3062.49
200.015	3094.06
200.09	3101.46
200.165	3104.36
200.24	3111.47
200.315	3158.44
200.39	3175.23
200.464	3181.57
200.539	3185.68
200.614	3199.41
200.689	3220.21
200.764	3229.18
200.839	3251.4
200.914	3251.49
200.989	3237.94
201.063	3255.11
201.138	3239.95
201.213	3239.05
201.288	3219.97
201.363	3222.93
201.438	3221.78
201.512	3242.19
201.587	3223.01
201.662	3226.83
201.737	3240.04
201.812	3250.87
201.886	3212.58
201.961	3224.42
202.036	3213.5
202.111	3206.67
202.186	3178.89
202.26	3162.81
202.335	3140.24
202.41	3130.27
202.485	3114.21
202.559	3095.09
202.634	3068.9
202.709	3076.86
202.784	3062.74
202.858	3066.89
202.933	3051.59
203.008	3046.72
203.082	3026.98
203.157	3030.27
203.232	2991.9
203.306	2977.5
203.381	2947.31
203.456	2930.72
203.53	2911.15
203.605	2897.38
203.68	2882.98
203.754	2885.6
203.829	2881.21
203.904	2869.68
203.978	2870.34
204.053	2887.6
204.127	2887.6
204.202	2897.57
204.277	2896.85
204.351	2902.67
204.426	2911.68
204.5	2921.31
204.575	2907.3
204.65	2935.39
204.724	2951.81
204.799	2981.16
204.873	2997.67
204.948	3022.46
205.022	3038.72
205.097	3059.76
205.171	3104.26
205.246	3148.64
205.32	3184.74
205.395	3221.77
205.469	3249.33
205.544	3298.65
205.618	3323.61
205.693	3380.84
205.767	3416.25
205.842	3487.12
205.916	3531.66
205.991	3574.59
206.065	3636.35
206.14	3714.87
206.214	3773.71
206.289	3823.7
206.363	3903.16
206.438	3973.62
206.512	4051.54
206.586	4140.88
206.661	4222.01
206.735	4274.59
206.81	4344.65
206.884	4434.42
206.958	4497.23
207.033	4595.52
207.107	4679.94
207.181	4798.4
207.256	4877.11
207.33	4983.41
207.405	5081.99
207.479	5191.59
207.553	5288.01
207.628	5362.07
207.702	5465.93
207.776	5553.27
207.851	5655.72
207.925	5765.28
207.999	5865.81
208.073	5965.79
208.148	6066.78
208.222	6153.26
208.296	6286.58
208.371	6404.74
208.445	6518.62
208.519	6656.26
208.593	6777.37
208.668	6881.8
208.742	6986.71
208.816	7092.14
208.89	7206.9
208.965	7315.31
209.039	7428.37
209.113	7558.93
209.187	7691.52
209.261	7795.99
209.336	7928.48
209.41	8063.59
209.484	8175.01
209.558	8306.44
209.632	8426.91
209.707	8553.7
209.781	8692.29
209.855	8821.47
209.929	8954.87
210.003	9073.09
210.077	9176.79
210.151	9330.88
210.226	9477.13
210.3	9618.2
210.374	9754.12
210.448	9870.48
210.522	9985.06
210.596	10097.53
210.67	10210.63
210.744	10366.72
210.818	10508.15
210.892	10631.34
210.966	10729.83
211.041	10853.32
211.115	10948.82
211.189	11076.32
211.263	11197.13
211.337	11309.17
211.411	11436.55
211.485	11537.19
211.559	11659.5
211.633	11770.73
211.707	11843.61
211.781	11954.81
211.855	12018.92
211.929	12114.35
212.003	12206.32
212.077	12319.88
212.151	12441.64
212.225	12554.72
212.299	12643.81
212.373	12725.47
212.447	12818.69
212.52	12940.89
212.594	13037.35
212.668	13148.46
212.742	13229.11
212.816	13318.73
212.89	13395.37
212.964	13473.28
213.038	13558.74
213.112	13653.66
213.186	13759.33
213.26	13832.31
213.333	13872.76
213.407	13968.88
213.481	14057
213.555	14146.14
213.629	14213.82
213.703	14284.34
213.777	14368.51
213.85	14436.33
213.924	14557.27
213.998	14649.58
214.072	14729.99
214.146	14795.16
214.219	14868.33
214.293	14941.12
214.367	15004.75
214.441	15094.02
214.515	15158.57
214.588	15212.99
214.662	15254.88
214.736	15307.18
214.81	15380.64
214.883	15462.39
214.957	15517.58
215.031	15579.66
215.105	15629.36
215.178	15692.26
215.252	15744.9
215.326	15781.67
215.4	15821.63
215.473	15829.58
215.547	15867.32
215.621	15911.76
215.694	15983.24
215.768	16026.09
215.842	16070.09
215.915	16124.22
215.989	16159.16
216.063	16206.45
216.136	16258.64
216.21	16318.65
216.284	16380.54
216.357	16440.3
216.431	16489.17
216.504	16547.25
216.578	16626.77
216.652	16693.33
216.725	16748.03
216.799	16814.69
216.873	16872.62
216.946	16937.1
217.02	16989.44
217.093	17032.87
217.167	17061.35
217.24	17087.08
217.314	17135.95
217.387	17179.47
217.461	17232.2
217.535	17296.15
217.608	17332.97
217.682	17386.9
217.755	17438.85
217.829	17482.9
217.902	17536.83
217.976	17588.68
218.049	17633.55
218.123	17657.98
218.196	17705.84
218.27	17738.89
218.343	17769.64
218.417	17815.13
218.49	17861.49
218.563	17926.21
218.637	17973.78
218.71	18054.69
218.784	18119.8
218.857	18176.66
218.931	18234.35
219.004	18279.98
219.077	18330.25
219.151	18388.61
219.224	18438.77
219.298	18476.55
219.371	18527.1
219.444	18549.13
219.518	18590.18
219.591	18638.09
219.665	18719.24
219.738	18768.01
219.811	18809.06
219.885	18864
219.958	18908.48
220.031	18943.13
220.105	18992.47
220.178	19049.19
220.251	19073.38
220.325	19117.29
220.398	19162.01
220.471	19208.94
220.544	19259.25
220.618	19293.47
220.691	19334.91
220.764	19373.03
220.838	19427.39
220.911	19467.72
220.984	19530.85
221.057	19575.14
221.131	19616.29
221.204	19616.49
221.277	19681.4
221.35	19753.01
221.424	19784.62
221.497	19835.46
221.57	19882.06
221.643	19917.48
221.716	19959.89
221.79	19988.57
221.863	20017.92
221.936	20043.17
222.009	20074.25
222.082	20108.42
222.155	20140.47
222.229	20192.56
222.302	20231.45
222.375	20258.29
222.448	20290.97
222.521	20324.51
222.594	20348.46
222.667	20363.79
222.74	20400.99
222.814	20405.91
222.887	20425.18
222.96	20458.49
223.033	20488.65
223.106	20514.05
223.179	20556.42
223.252	20584.08
223.325	20615.65
223.398	20646.88
223.471	20676.13
223.544	20697.86
223.617	20719.84
223.69	20738.39
223.763	20739.36
223.837	20771.79
223.91	20800.9
223.983	20806.2
224.056	20814.21
224.129	20843.41
224.202	20886.79
224.275	20915.8
224.348	20925.73
224.42	20930.93
224.493	20938.79
224.566	20947.99
224.639	20968.96
224.712	20969.39
224.785	20972.72
224.858	20978.79
224.931	20980.48
225.004	20991.18
225.077	21014.02
225.15	20998.41
225.223	21021.4
225.296	21069.59
225.369	21054.65
225.442	21048.53
225.514	21066.7
225.587	21077.02
225.66	21090.8
225.733	21095.76
225.806	21094.32
225.879	21100.92
225.952	21094.85
226.025	21110.7
226.097	21141.12
226.17	21146.03
226.243	21136.01
226.316	21144.64
226.389	21161.12
226.461	21180.35
226.534	21192.16
226.607	21196.16
226.68	21228.93
226.753	21227.78
226.825	21198.81
226.898	21223.44
226.971	21239.78
227.044	21250.77
227.117	21258.81
227.189	21266.91
227.262	21276.7
227.335	21287.06
227.407	21294.62
227.48	21315.49
227.553	21329.47
227.626	21309.37
227.698	21312.36
227.771	21317.18
227.844	21308.12
227.916	21301.66
227.989	21285.27
228.062	21273.03
228.134	21298.67
228.207	21296.5
228.28	21292.74
228.352	21290.09
228.425	21287.25
228.498	21284.36
228.57	21277.61
228.643	21286.43
228.716	21279.2
228.788	21276.55
228.861	21263.44
228.934	21276.16
229.006	21273.71
229.079	21261.13
229.151	21260.55
229.224	21238.86
229.296	21242.33
229.369	21268.55
229.442	21298.05
229.514	21292.99
229.587	21315.83
229.659	21294.87
229.732	21297.81
229.804	21302.14
229.877	21324.32
229.949	21335.16
230.022	21361.09
230.094	21358.34
230.167	21363.55
230.239	21349.96
230.312	21336.32
230.384	21360.95
230.457	21356.13
230.529	21344.85
230.602	21344.56
230.674	21345.81
230.747	21363.31
230.819	21371.07
230.892	21331.45
230.964	21321.71
231.037	21313.52
231.109	21296.17
231.181	21295.78
231.254	21273.08
231.326	21267.2
231.399	21259.78
231.471	21242.72
231.544	21198.13
231.616	21205.56
231.688	21195.19
231.761	21178.81
231.833	21169.12
231.905	21130.95
231.978	21125.02
232.05	21125.16
232.122	21115.57
232.195	21095.47
232.267	21095.43
232.339	21076.49
232.412	21085.84
232.484	21058.36
232.556	21047.18
232.629	21054.46
232.701	21042.31
232.773	21029.2
232.846	21005.73
232.918	20982.07
232.99	20968.91
233.062	20967.03
233.135	20945.15
233.207	20911.17
233.279	20918.02
233.351	20908.86
233.424	20881.63
233.496	20844.04
233.568	20831.41
233.64	20795.84
233.713	20782.88
233.785	20754.15
233.857	20739.84
233.929	20703.84
234.001	20702.49
234.074	20698.1
234.146	20663.45
234.218	20644.13
234.29	20631.84
234.362	20613.48
234.434	20583.21
234.507	20550.82
234.579	20519.45
234.651	20492.65
234.723	20484.51
234.795	20458.77
234.867	20437.86
234.939	20449.52
235.012	20432.08
235.084	20418.63
235.156	20411.35
235.228	20387.3
235.3	20362
235.372	20337.43
235.444	20324.85
235.516	20275.98
235.588	20259.11
235.66	20238.15
235.732	20204.8
235.804	20224.56
235.876	20208.95
235.948	20200.56
236.02	20167.31
236.092	20137.43
236.164	20113.38
236.236	20073.09
236.308	20039.31
236.38	20006.78
236.452	19963.84
236.524	19945.39
236.596	19928.81
236.668	19909.63
236.74	19873.97
236.812	19847.13
236.884	19824.81
236.956	19803.13
237.028	19767.76
237.1	19720
237.172	19700.34
237.244	19681.01
237.316	19619.91
237.388	19580.34
237.46	19540.01
237.532	19530.95
237.604	19501.89
237.675	19482.81
237.747	19468.73
237.819	19429.56
237.891	19401.56
237.963	19363.01
238.035	19325.18
238.107	19262.63
238.178	19244.41
238.25	19209.76
238.322	19206.58
238.394	19164.95
238.466	19127.41
238.538	19114.39
238.609	19101.05
238.681	19044.28
238.753	19003.56
238.825	18972.57
238.897	18946.84
238.968	18936.96
239.04	18899.85
239.112	18894.07
239.184	18862.27
239.255	18830.8
239.327	18809.55
239.399	18781.21
239.471	18761.79
239.542	18739.57
239.614	18729.74
239.686	18667.05
239.758	18652.11
239.829	18608.69
239.901	18585.08
239.973	18558.04
240.044	18517.85
240.116	18474.14
240.188	18447.54
240.259	18421.09
240.331	18384.99
240.403	18363.16
240.474	18306.83
240.546	18260.76
240.618	18211.12
240.689	18166.54
240.761	18130.21
240.833	18113.63
240.904	18082.98
240.976	18053.39
241.048	18021.2
241.119	17986.5
241.191	17968.87
241.262	17942.31
241.334	17900.72
241.405	17863.91
241.477	17813.3
241.549	17777.55
241.62	17753.5
241.692	17734.56
241.763	17713.21
241.835	17675.23
241.906	17634.71
241.978	17584.3
242.049	17567.09
242.121	17537.07
242.192	17509.11
242.264	17457.55
242.335	17406.99
242.407	17375.14
242.478	17331.52
242.55	17298.17
242.621	17256.39
242.693	17213.16
242.764	17178.99
242.836	17137.45
242.907	17101.98
242.979	17084.24
243.05	17059.66
243.122	17030.51
243.193	16986.12
243.264	16923.47
243.336	16886.7
243.407	16868.14
243.479	16864.53
243.55	16836.09
243.622	16809.58
243.693	16778.35
243.764	16769.87
243.836	16724.95
243.907	16686.68
243.978	16655.07
244.05	16636.7
244.121	16585.95
244.192	16565.86
244.264	16516.5
244.335	16491.78
244.407	16452.74
244.478	16418.47
244.549	16380.49
244.62	16337.6
244.692	16305.59
244.763	16290.8
244.834	16262.36
244.906	16220.38
244.977	16191.8
245.048	16177.68
245.119	16139.41
245.191	16102.73
245.262	16039.35
245.333	16030.62
245.405	16004.79
245.476	15976.64
245.547	15935
245.618	15916.97
245.689	15892.82
245.761	15859.37
245.832	15821.39
245.903	15798.74
245.974	15773.67
246.045	15739.06
246.117	15720.41
246.188	15678.23
246.259	15627.33
246.33	15593.45
246.401	15559.37
246.473	15511.6
246.544	15463.84
246.615	15449.19
246.686	15409.13
246.757	15410.34
246.828	15358.08
246.899	15336.44
246.97	15288.62
247.042	15247.8
247.113	15227.26
247.184	15212.61
247.255	15185.13
247.326	15159.78
247.397	15127.53
247.468	15099.19
247.539	15070.32
247.61	15017.53
247.681	15000.85
247.752	14990.88
247.823	14949.57
247.894	14922.76
247.965	14884.15
248.037	14846.51
248.108	14792.23
248.179	14766.05
248.25	14725.42
248.321	14712.5
248.392	14677.84
248.463	14677.46
248.534	14652.24
248.605	14634.02
248.675	14595.32
248.746	14568.85
248.817	14547.02
248.888	14522.14
248.959	14468.54
249.03	14449.26
249.101	14433.78
249.172	14394.98
249.243	14341.42
249.314	14327.68
249.385	14296.78
249.456	14274.37
249.527	14245.3
249.598	14221
249.669	14190.29
249.739	14169.52
249.81	14142.91
249.881	14090.94
249.952	14057.73
250.023	14031.31
250.094	13975.97
250.165	13932.92
250.235	13906.51
250.306	13874.02
250.377	13833.96
250.448	13824.75
250.519	13780.35
250.59	13774.81
250.66	13752.87
250.731	13751.57
250.802	13737.4
250.873	13714.16
250.944	13694.88
251.014	13666.39
251.085	13670.82
251.156	13655.25
251.227	13642.96
251.297	13634.33
251.368	13632.98
251.439	13622.33
251.51	13612.4
251.58	13581.93
251.651	13556
251.722	13550.31
251.792	13513.67
251.863	13485.76
251.934	13474.96
252.005	13479.64
252.075	13439.1
252.146	13424.01
252.217	13411.86
252.287	13384
252.358	13363.12
252.429	13361.63
252.499	13335.31
252.57	13315.45
252.641	13299.39
252.711	13273.17
252.782	13228.05
252.852	13221.54
252.923	13191.6
252.994	13167.45
253.064	13161.62
253.135	13134.05
253.205	13099.34
253.276	13105.89
253.347	13108.54
253.417	13068.29
253.488	13034.6
253.558	13012.66
253.629	12988.17
253.699	12966.34
253.77	12954.28
253.841	12928.11
253.911	12897.16
253.982	12877.78
254.052	12859.8
254.123	12843.46
254.193	12819.6
254.264	12836.28
254.334	12799.83
254.405	12764.11
254.475	12724.15
254.546	12705.98
254.616	12697.64
254.687	12688.43
254.757	12657.82
254.827	12631.16
254.898	12617.28
254.968	12599.78
255.039	12571.87
255.109	12557.31
255.18	12526.7
255.25	12481.92
255.321	12470.55
255.391	12444.27
255.461	12441.33
255.532	12389.13
255.602	12357.8
255.673	12318.7
255.743	12285.59
255.813	12244.28
255.884	12238.01
255.954	12230.39
256.024	12216.95
256.095	12193.71
256.165	12155.34
256.235	12142.52
256.306	12115
256.376	12111.04
256.446	12095.09
256.517	12083.14
256.587	12071.37
256.657	12048
256.728	12035.9
256.798	12009.82
256.868	11985.14
256.938	11955.06
257.009	11954.24
257.079	11950.77
257.149	11954.68
257.219	11919.11
257.29	11906.29
257.36	11870.47
257.43	11864.35
257.5	11830.56
257.571	11805.21
257.641	11791.67
257.711	11761.35
257.781	11745.93
257.852	11727.56
257.922	11691.75
257.992	11669.77
258.062	11646.83
258.132	11639.79
258.202	11622.97
258.273	11609.76
258.343	11610.25
258.413	11590.73
258.483	11566.05
258.553	11535.1
258.623	11514.09
258.693	11504.07
258.764	11502.38
258.834	11499.49
258.904	11473.94
258.974	11447.97
259.044	11427.97
259.114	11412.98
259.184	11392.3
259.254	11371.48
259.324	11332.25
259.394	11323.38
259.464	11324.73
259.535	11307
259.605	11287.57
259.675	11250.23
259.745	11235.24
259.815	11197.5
259.885	11170.8
259.955	11180.73
260.025	11154.13
260.095	11130.03
260.165	11113.65
260.235	11114.08
260.305	11083.96
260.375	11056.93
260.445	11067.05
260.515	11066.08
260.585	11061.84
260.655	11045.12
260.725	11042.42
260.795	11034.33
260.865	11038.71
260.934	11010.95
261.004	10999.15
261.074	10984.54
261.144	10992.88
261.214	10991.96
261.284	10979.24
261.354	10979.19
261.424	10953.84
261.494	10958.37
261.564	10946.28
261.634	10939
261.703	10902.09
261.773	10898.04
261.843	10892.74
261.913	10872.69
261.983	10842.05
262.053	10835.25
262.123	10822.05
262.192	10795.07
262.262	10787.4
262.332	10751.36
262.402	10744.61
262.472	10731.36
262.541	10693.35
262.611	10695.61
262.681	10667.23
262.751	10661.45
262.821	10640.15
262.89	10610.66
262.96	10600.06
263.03	10600.21
263.1	10588.11
263.169	10575.29
263.239	10562.33
263.309	10570.09
263.379	10552.7
263.448	10541.67
263.518	10522.78
263.588	10508.76
263.657	10509.67
263.727	10509.43
263.797	10491.99
263.867	10472.43
263.936	10442.22
264.006	10443.18
264.076	10416.49
264.145	10401.32
264.215	10375.59
264.285	10368.8
264.354	10337.34
264.424	10308.77
264.494	10276.87
264.563	10256.97
264.633	10265.21
264.702	10254.28
264.772	10220.5
264.842	10208.31
264.911	10198.15
264.981	10177.09
265.05	10168.33
265.12	10153.2
265.19	10133.54
265.259	10137.25
265.329	10135.23
265.398	10124.97
265.468	10138.99
265.537	10121.21
265.607	10110.42
265.676	10110.76
265.746	10098.38
265.815	10098.14
265.885	10081.57
265.955	10059.41
266.024	10040.72
266.094	10002.33
266.163	10008.73
266.232	10001.65
266.302	9985.66
266.371	9982.14
266.441	9964.71
266.51	9962.63
266.58	9940.33
266.649	9921.31
266.719	9920.87
266.788	9907.91
266.858	9909.84
266.927	9868.08
266.996	9855.41
267.066	9847.17
267.135	9817.65
267.205	9817.7
267.274	9810.04
267.343	9812.59
267.413	9802.29
267.482	9806
267.552	9808.45
267.621	9770.16
267.69	9738.52
267.76	9732.16
267.829	9714.05
267.898	9702.25
267.968	9674.8
268.037	9673.83
268.106	9676.1
268.176	9643.87
268.245	9635.35
268.314	9619.36
268.384	9621.86
268.453	9612.18
268.522	9600.09
268.592	9603.37
268.661	9584.87
268.73	9579.53
268.799	9563.68
268.869	9569.8
268.938	9537.19
269.007	9518.75
269.076	9513.12
269.146	9516.39
269.215	9509.07
269.284	9523.81
269.353	9512.78
269.422	9501.22
269.492	9484.08
269.561	9436.94
269.63	9432.03
269.699	9410.98
269.768	9405.44
269.838	9396.1
269.907	9396.73
269.976	9372.84
270.045	9341.93
270.114	9334.08
270.183	9318.24
270.253	9309.04
270.322	9283.77
270.391	9273.94
270.46	9274.91
270.529	9269.8
270.598	9270.24
270.667	9256.75
270.736	9233.54
270.806	9227.96
270.875	9228.15
270.944	9210.09
271.013	9234.89
271.082	9230.22
271.151	9223.05
271.22	9200.13
271.289	9185.68
271.358	9166.62
271.427	9162.04
271.496	9159.54
271.565	9143.17
271.634	9134.31
271.703	9160.85
271.772	9162.58
271.841	9157.62
271.91	9136.48
271.979	9135.91
272.048	9110
272.117	9117.75
272.186	9095.46
272.255	9089.59
272.324	9082.85
272.393	9082.22
272.462	9067.54
272.531	9059.83
272.6	9055.31
272.669	9059.3
272.738	9055.12
272.807	9059.11
272.876	9043.08
272.945	9069.32
273.013	9072.45
273.082	9069.32
273.151	9023.24
273.22	9015.44
273.289	9008.13
273.358	9017.22
273.427	9003.6
273.496	9002.3
273.564	8986.56
273.633	8993.49
273.702	8973.37
273.771	8963.11
273.84	8958.4
273.909	8959.07
273.977	8957.14
274.046	8947.37
274.115	8942.75
274.184	8920.66
274.253	8905.54
274.322	8915.22
274.39	8877.67
274.459	8860.82
274.528	8839.69
274.597	8832.38
274.665	8835.84
274.734	8847.59
274.803	8834.3
274.872	8834.16
274.94	8818.47
275.009	8849.28
275.078	8829.31
275.147	8830.8
275.215	8830.46
275.284	8841.24
275.353	8822.76
275.421	8796.57
275.49	8813.18
275.559	8808.51
275.627	8809.96
275.696	8809.43
275.765	8814.05
275.833	8814.15
275.902	8818.33
275.971	8832.68
276.039	8851.88
276.108	8848.7
276.177	8838.55
276.245	8830.32
276.314	8817.99
276.383	8826.66
276.451	8790.16
276.52	8798.49
276.588	8811
276.657	8813.22
276.725	8802.72
276.794	8806.62
276.863	8818.32
276.931	8789.24
277	8794.05
277.068	8798.1
277.137	8811.77
277.205	8799.06
277.274	8813.07
277.342	8822.16
277.411	8799.59
277.48	8780.29
277.548	8775.09
277.617	8774.52
277.685	8768.93
277.754	8776.1
277.822	8770.81
277.89	8786.46
277.959	8776.83
278.027	8756.9
278.096	8742.61
278.164	8768.99
278.233	8761.63
278.301	8749.74
278.37	8753.88
278.438	8741.22
278.507	8749.74
278.575	8720.09
278.643	8716.96
278.712	8700.69
278.78	8683.03
278.849	8691.21
278.917	8700.11
278.985	8692.6
279.054	8694.91
279.122	8707.43
279.191	8698.86
279.259	8689.67
279.327	8659.2
279.396	8672.92
279.464	8668.68
279.532	8678.36
279.601	8668.34
279.669	8660.93
279.737	8672.24
279.806	8674.93
279.874	8688.03
279.942	8686.2
280.011	8684.95
280.079	8692.12
280.147	8713.54
280.215	8718.25
280.284	8718.45
280.352	8704.83
280.42	8718.16
280.488	8710.02
280.557	8704.39
280.625	8709.2
280.693	8704.59
280.761	8717.05
280.83	8700.59
280.898	8712.57
280.966	8690.63
281.034	8655.64
281.102	8645.44
281.171	8644.28
281.239	8653.38
281.307	8638.41
281.375	8619.35
281.443	8644.52
281.512	8640.19
281.58	8637.21
281.648	8621.28
281.716	8621.04
281.784	8621.66
281.852	8609.05
281.92	8606.02
281.989	8613.38
282.057	8596.93
282.125	8650.84
282.193	8648.14
282.261	8649.2
282.329	8646.7
282.397	8651.27
282.465	8663.16
282.533	8676.63
282.601	8659.93
282.67	8634.62
282.738	8629.61
282.806	8641.21
282.874	8630.96
282.942	8632.01
283.01	8627.3
283.078	8637.45
283.146	8631.1
283.214	8643.18
283.282	8644.43
283.35	8662.29
283.418	8651.36
283.486	8656.75
283.554	8614.53
283.622	8607.7
283.69	8600.29
283.758	8592.49
283.826	8599.56
283.894	8605.15
283.962	8627.82
284.03	8643.75
284.098	8646.15
284.165	8638.17
284.233	8638.17
284.301	8629.02
284.369	8627.96
284.437	8619.68
284.505	8612.51
284.573	8628.49
284.641	8609.72
284.709	8614.29
284.777	8590.76
284.845	8597.01
284.912	8597.54
284.98	8600.29
285.048	8596.39
285.116	8607.27
285.184	8622.52
285.252	8623.63
285.319	8605.63
285.387	8587.19
285.455	8571.79
285.523	8577.67
285.591	8574.97
285.659	8578.15
285.726	8586.28
285.794	8568.91
285.862	8568.86
285.93	8570.93
285.997	8566.89
286.065	8565.44
286.133	8558.66
286.201	8557.94
286.269	8549.56
286.336	8544.12
286.404	8535.56
286.472	8544.36
286.539	8521.27
286.607	8500.72
286.675	8501.44
286.743	8507.94
286.81	8507.17
286.878	8519.97
286.946	8514.43
287.013	8521.94
287.081	8521.84
287.149	8510.39
287.216	8532.96
287.284	8525.16
287.352	8522.13
287.419	8514.34
287.487	8532.72
287.555	8541.86
287.622	8540.71
287.69	8544.41
287.758	8560.49
287.825	8560.87
287.893	8547.21
287.96	8560
288.028	8576.85
288.096	8576.22
288.163	8581.76
288.231	8569.05
288.298	8567.51
288.366	8579.01
288.433	8571.41
288.501	8562.51
288.569	8561.35
288.636	8554.37
288.704	8571.27
288.771	8587.58
288.839	8581.81
288.906	8571.08
288.974	8578.73
289.041	8568.77
289.109	8559.34
289.176	8565.98
289.244	8569.68
289.311	8583.06
289.379	8587.01
289.446	8588.41
289.514	8592.26
289.581	8592.83
289.649	8600.53
289.716	8608.33
289.783	8598.94
289.851	8619.97
289.918	8620.02
289.986	8636.58
290.053	8643.41
290.121	8639.03
290.188	8638.65
290.255	8674.02
290.323	8669.69
290.39	8656.36
290.458	8670.7
290.525	8680.27
290.592	8672.24
290.66	8672.19
290.727	8671.76
290.794	8690.81
290.862	8686.77
290.929	8687.69
290.996	8687.2
291.064	8692.07
291.131	8700.2
291.198	8719.31
291.266	8717.82
291.333	8717.86
291.4	8719.07
291.468	8729.71
291.535	8725.28
291.602	8722.01
291.669	8707.42
291.737	8712.42
291.804	8717.14
291.871	8733.51
291.938	8743.52
292.006	8775.82
292.073	8790.31
292.14	8797.58
292.207	8790.4
292.275	8785.93
292.342	8797.24
292.409	8824.53
292.476	8852.98
292.543	8845.52
292.611	8842.44
292.678	8859.48
292.745	8889.81
292.812	8897.56
292.879	8896.98
292.946	8905.55
293.014	8921.43
293.081	8933.71
293.148	8946.75
293.215	8957.39
293.282	8950.94
293.349	8960.13
293.416	8935.77
293.484	8949.97
293.551	8961.72
293.618	8975.63
293.685	9012.94
293.752	9005.24
293.819	8995.37
293.886	8980.97
293.953	8984.29
294.02	8995.22
294.087	9002.97
294.154	8997.44
294.221	9011.73
294.288	9009.42
294.356	9024.3
294.423	9030.37
294.49	9016.84
294.557	9035.08
294.624	9029.64
294.691	9052.56
294.758	9059.78
294.825	9065.13
294.892	9058.43
294.959	9058.67
295.026	9067.92
295.093	9060.89
295.16	9059.68
295.226	9066.62
295.293	9098.2
295.36	9103.64
295.427	9117.85
295.494	9127.81
295.561	9132.44
295.628	9156.47
295.695	9174.18
295.762	9176.93
295.829	9188.24
295.896	9203.65
295.963	9215.21
296.03	9222.86
296.096	9221.13
296.163	9225.56
296.23	9245.68
296.297	9257.72
296.364	9255.94
296.431	9265.76
296.498	9260.9
296.564	9286.61
296.631	9288.39
296.698	9267.78
296.765	9284.63
296.832	9275.67
296.899	9264.16
296.965	9283.23
297.032	9267.34
297.099	9282.27
297.166	9287.52
297.233	9278.17
297.299	9277.26
297.366	9274.56
297.433	9282.41
297.5	9301.53
297.566	9304.9
297.633	9304.47
297.7	9303.45
297.767	9301.09
297.833	9304.32
297.9	9301.58
297.967	9293.54
298.033	9310.05
298.1	9341.69
298.167	9341.11
298.234	9342.56
298.3	9350.17
298.367	9342.94
298.434	9344.48
298.5	9335.14
298.567	9334.71
298.634	9335.72
298.7	9355.17
298.767	9355.85
298.834	9370.39
298.9	9352.62
298.967	9348.19
299.033	9357.68
299.1	9377.08
299.167	9400.34
299.233	9393.5
299.3	9415.22
299.366	9428.94
299.433	9442.43
299.5	9408.09
299.566	9409.82
299.633	9427.83
299.699	9435.39
299.766	9432.07
299.832	9439.25
299.899	9447.39
299.965	9463.32
300.032	9458.37
300.099	9464.14
300.165	9471.95
300.232	9468.29
300.298	9477.1
300.365	9491.06
300.431	9490.68
300.498	9482.11
300.564	9484.51
300.631	9491.69
300.697	9510.13
300.763	9508.88
300.83	9503.1
300.896	9526.79
300.963	9536.76
301.029	9540.47
301.096	9549.96
301.162	9565.08
301.229	9561.71
301.295	9555.35
301.361	9554.2
301.428	9560.89
301.494	9545.62
301.561	9550.1
301.627	9549.62
301.693	9554.29
301.76	9554.82
301.826	9546.59
301.892	9558.48
301.959	9566.28
302.025	9569.61
302.092	9558.96
302.158	9565.56
302.224	9572.54
302.291	9563.25
302.357	9558.91
302.423	9560.07
302.49	9552.17
302.556	9564.84
302.622	9563.92
302.688	9574.86
302.755	9589.64
302.821	9598.94
302.887	9610.69
302.954	9608.71
303.02	9625.37
303.086	9633.61
303.152	9633.22
303.219	9633.27
303.285	9638.19
303.351	9643.19
303.417	9645.7
303.483	9631.44
303.55	9626.05
303.616	9623.21
303.682	9619.79
303.748	9616.66
303.815	9623.4
303.881	9630.72
303.947	9614.97
304.013	9616.66
304.079	9603.9
304.145	9581.12
304.212	9579.96
304.278	9577.99
304.344	9577.02
304.41	9563.54
304.476	9551.11
304.542	9538.21
304.608	9541.24
304.674	9521.93
304.741	9518.08
304.807	9517.11
304.873	9523.42
304.939	9542.88
305.005	9527.37
305.071	9529.73
305.137	9530.93
305.203	9509.45
305.269	9507.05
305.335	9520.58
305.401	9516.68
305.467	9520.82
305.533	9530.45
305.599	9540.04
305.666	9537.24
305.732	9529.54
305.798	9533.29
305.864	9563.16
305.93	9577.7
305.996	9575.77
306.062	9577.46
306.128	9570.86
306.194	9554.49
306.259	9555.16
306.325	9541.87
306.391	9551.6
306.457	9560.22
306.523	9568.31
306.589	9587.04
306.655	9576.4
306.721	9561.18
306.787	9556.7
306.853	9564.94
306.919	9552.7
306.985	9546.06
307.051	9547.02
307.117	9540.28
307.183	9533.1
307.248	9496.79
307.314	9501.99
307.38	9507.96
307.446	9513.98
307.512	9505.03
307.578	9513.6
307.644	9508.59
307.709	9511.91
307.775	9503.29
307.841	9495.39
307.907	9492.21
307.973	9474.97
308.039	9483.55
308.104	9489.13
308.17	9483.45
308.236	9475.26
308.302	9476.32
308.368	9464.14
308.433	9465.2
308.499	9459.04
308.565	9456.15
308.631	9465.68
308.696	9441.46
308.762	9432.4
308.828	9430.33
308.894	9417.81
308.959	9400.14
309.025	9394.41
309.091	9387.19
309.156	9379.87
309.222	9387.33
309.288	9376.98
309.354	9355.12
309.419	9350.74
309.485	9335.23
309.551	9343.71
309.616	9321.85
309.682	9321.37
309.748	9311.11
309.813	9304.85
309.879	9302.97
309.945	9289.44
310.01	9282.17
310.076	9283.33
310.141	9274.28
310.207	9260.65
310.273	9255.11
310.338	9260.94
310.404	9241.15
310.469	9226.51
310.535	9220.06
310.601	9194.83
310.666	9198.73
310.732	9213.51
310.797	9198.15
310.863	9181.97
310.928	9171.48
310.994	9178.55
311.059	9175.33
311.125	9176.92
311.191	9184.91
311.256	9172.25
311.322	9178.7
311.387	9157.95
311.453	9562.11
311.518	9536.93
311.584	9530.77
311.649	9541.17
311.715	9530.19
311.78	9530.29
311.846	9523.89
311.911	9524.71
311.976	9532.02
312.042	9509.49
312.107	9491.34
312.173	9486.09
312.238	9485.32
312.304	9482.63
312.369	9472.28
312.434	9459.08
312.5	9451.86
312.565	9418.01
312.631	9428.22
312.696	9419.99
312.761	9422.25
312.827	9006.68
312.892	9049.29
312.958	9047.5
313.023	9044.66
313.088	9040.62
313.154	9034.36
313.219	9024.3
313.284	9015.88
313.35	9004.23
313.415	8994.5
313.48	8991.86
313.546	8995.85
313.611	9003.41
313.676	8995.03
313.741	8985.5
313.807	8990.6
313.872	8989.26
313.937	8993.06
314.003	9000.52
314.068	9001.73
314.133	9006.11
314.198	8998.55
314.264	8974.23
314.329	8968.79
314.394	8964.51
314.459	8961.38
314.525	8977.89
314.59	8972.16
314.655	8963.35
314.72	8972.6
314.785	8978.76
314.851	8974.43
314.916	8957
314.981	8942.94
315.046	8933.51
315.111	8928.5
315.176	8921.91
315.242	8927.35
315.307	8932.98
315.372	8914.3
315.437	8900.1
315.502	8889.75
315.567	8906.02
315.632	8888.06
315.698	8890.62
315.763	8886.96
315.828	8885.18
315.893	8880.65
315.958	8877.96
316.023	8869.39
316.088	8849.6
316.153	8827.8
316.218	8820.01
316.283	8800.23
316.348	8780.98
316.413	8779.44
316.479	8762.93
316.544	8722.75
316.609	8692.28
316.674	8650.51
316.739	8616.15
316.804	8586.07
316.869	8551.43
316.934	8507.72
316.999	8484.72
317.064	8429.87
317.129	8380.26
317.194	8338.3
317.259	8292.63
317.324	8245.78
317.389	8202.96
317.454	8160.96
317.518	8130.46
317.583	8110.15
317.648	8083.22
317.713	8053.97
317.778	7996.48
317.843	7968.15
317.908	7936.65
317.973	7902.07
318.038	7880.71
318.103	7842.96
318.168	7815.89
318.233	7789.53
318.297	7738.71
318.362	7696.68
318.427	7661.78
318.492	7641.92
318.557	7597.69
318.622	7567.11
318.687	7545.05
318.751	7503.47
318.816	7472.51
318.881	7434.01
318.946	7373.49
319.011	7333.06
319.075	7292.78
319.14	7252.18
319.205	7204.65
319.27	7168.56
319.335	7125.6
319.399	7077.78
319.464	7052.03
319.529	7001.72
319.594	6962.32
319.658	6941.18
319.723	6902.17
319.788	6874.31
319.853	6818.29
319.917	6793.51
319.982	6741.2
320.047	6705.18
320.112	6680.16
320.176	6629.78
320.241	6602.12
320.306	6572.83
320.37	6534.85
320.435	6502.01
320.5	6478.38
320.564	6444.92
320.629	6410.17
320.694	6377.14
320.758	6340.66
320.823	6296.7
320.888	6268.24
320.952	6218.81
321.017	6168.75
321.082	6131.42
321.146	6098.98
321.211	6064.82
321.275	6020.78
321.34	5980.96
321.405	5938.17
321.469	5890.73
321.534	5853.57
321.598	5799.66
321.663	5770.88
321.727	5735.29
321.792	5683.36
321.857	5642.31
321.921	5601.22
321.986	5551.7
322.05	5488.87
322.115	5453.44
322.179	5411.55
322.244	5350.56
322.308	5317.97
322.373	5276.66
322.437	5234.83
322.502	5205.64
322.566	5164
322.631	5129.32
322.695	5090.76
322.76	5047.17
322.824	5016.62
322.889	4976.1
322.953	4939.33
323.018	4870.38
323.082	4806.48
323.146	4759.67
323.211	4704.95
323.275	4663.69
323.34	4623.16
323.404	4597.57
323.468	4551.34
323.533	4504.3
323.597	4464.81
323.662	4415.87
323.726	4376.88
323.79	4337.03
323.855	4273.72
323.919	4221.6
323.983	4175.16
324.048	4108.45
324.112	4267.73
324.177	4138.66
324.241	3923.34
324.305	3711.16
324.37	3509.85
324.434	3316.42
324.498	3274.28
324.562	3224.85
324.627	3163.63
324.691	3107.96
324.755	3040.5
324.82	2963.71
324.884	2889
324.948	2817.85
325.012	2722.13
325.077	2604.35
