Data from 20250703_urea_0.1M_MAYP1162681_13-51-04-969.txt Node
Date: Thu Jul 03 13:51:04 BST 2025
User: adleo
Spectrometer: MAYP116268
Trigger mode: 0
Integration Time (sec): 1.000000E0
Scans to average: 1
Electric dark correction enabled: true
Nonlinearity correction enabled: true
Boxcar width: 10
XAxis mode: Wavelengths
Number of Pixels in Spectrum: 2068
>>>>>Begin Spectral Data<<<<<
179.565	1247.35
179.642	1304.04
179.718	1348.63
179.795	1388.34
179.871	1422.36
179.948	1440.09
180.024	1459.14
180.101	1478.9
180.177	1490.54
180.254	1515.19
180.33	1537.02
180.407	1591.66
180.483	1692.96
180.56	1787.55
180.636	1874.06
180.712	1856.23
180.789	1867.02
180.865	1878.42
180.942	1887.98
181.018	1894.82
181.095	1907.76
181.171	1913.13
181.248	1913.94
181.324	1928.54
181.4	1934.53
181.477	1944.28
181.553	1959.11
181.63	1982.74
181.706	1999.62
181.782	2009.79
181.859	2009.13
181.935	2015.03
182.011	2015.36
182.088	2026.87
182.164	2044.57
182.24	2058.12
182.317	2070.77
182.393	2071.38
182.469	2086.79
182.546	2099.83
182.622	2106.48
182.698	2102.01
182.775	2113
182.851	2126.6
182.927	2120.56
183.003	2115.19
183.08	2109.39
183.156	2116.19
183.232	2113.52
183.308	2103.06
183.385	2111.67
183.461	2128.6
183.537	2127.99
183.613	2139.21
183.69	2130.32
183.766	2122.32
183.842	2129.55
183.918	2136.5
183.995	2150.25
184.071	2153.67
184.147	2148.35
184.223	2135.79
184.299	2148.45
184.375	2136.51
184.452	2141.84
184.528	2191.47
184.604	2202.93
184.68	2214.96
184.756	2222.96
184.832	2218.86
184.908	2223.33
184.985	2222.38
185.061	2206.97
185.137	2220.1
185.213	2208.16
185.289	2211.68
185.365	2201.26
185.441	2197.74
185.517	2209.78
185.593	2203.41
185.669	2200.6
185.745	2210.4
185.822	2228.33
185.898	2220.1
185.974	2230.56
186.05	2224.57
186.126	2189.6
186.202	2184.65
186.278	2179.65
186.354	2171.33
186.43	2186.98
186.506	2188.55
186.582	2190.6
186.658	2194.12
186.734	2171.38
186.81	2174.85
186.886	2177.7
186.962	2190.12
187.038	2190.31
187.114	2182.69
187.19	2189.17
187.266	2178.65
187.341	2176.37
187.417	2169.38
187.493	2166.52
187.569	2169.66
187.645	2164.67
187.721	2154.25
187.797	2159.76
187.873	2165.47
187.949	2160.24
188.025	2150.39
188.101	2152.39
188.176	2155.14
188.252	2152.67
188.328	2161.37
188.404	2161.33
188.48	2155.71
188.556	2149
188.632	2146.82
188.707	2146.91
188.783	2145.63
188.859	2140.92
188.935	2134.5
189.011	2139.59
189.086	2135.59
189.162	2125.08
189.238	2122.6
189.314	2118.66
189.39	2114.9
189.465	2107.9
189.541	2122.56
189.617	2109.57
189.693	2105.86
189.768	2110.67
189.844	2137.23
189.92	2130.09
189.996	2137.75
190.071	2148.27
190.147	2147.12
190.223	2156.35
190.298	2148.88
190.374	2133.14
190.45	2144.55
190.526	2150.98
190.601	2144.84
190.677	2151.16
190.753	2179.34
190.828	2181.86
190.904	2197.61
190.98	2212.6
191.055	2223.83
191.131	2216.03
191.207	2235.82
191.282	2244.33
191.358	2236.34
191.433	2220.01
191.509	2233.95
191.585	2233.23
191.66	2236.95
191.736	2247.84
191.811	2239.28
191.887	2256.27
191.963	2282.63
192.038	2288.48
192.114	2291.24
192.189	2298.04
192.265	2290.96
192.34	2268.49
192.416	2266.97
192.491	2261.54
192.567	2264.16
192.642	2265.54
192.718	2266.78
192.793	2259.68
192.869	2253.83
192.944	2255.12
193.02	2262.11
193.095	2264.59
193.171	2268.2
193.246	2263.78
193.322	2259.16
193.397	2259.35
193.473	2245.45
193.548	2224.37
193.624	2231.42
193.699	2229.61
193.775	2248.13
193.85	2248.98
193.925	2259.59
194.001	2261.12
194.076	2255.88
194.152	2246.22
194.227	2238.65
194.302	2228.76
194.378	2228.66
194.453	2228.14
194.529	2241.08
194.604	2228.76
194.679	2223.29
194.755	2207.02
194.83	2224.59
194.905	2222.54
194.981	2232.29
195.056	2224.54
195.131	2232.87
195.207	2230.06
195.282	2218.74
195.357	2197.41
195.433	2214.11
195.508	2200.83
195.583	2205.16
195.659	2218.96
195.734	2229.29
195.809	2231.43
195.884	2237.67
195.96	2237.81
196.035	2250.8
196.11	2247.42
196.185	2256.79
196.261	2262.79
196.336	2292.2
196.411	2275.63
196.486	2281.15
196.561	2275.06
196.637	2282.14
196.712	2299.86
196.787	2301.28
196.862	2319.17
196.937	2329.26
197.013	2333.26
197.088	2343.49
197.163	2369.63
197.238	2385.73
197.313	2382.16
197.388	2392.4
197.464	2424.68
197.539	2436.01
197.614	2431.77
197.689	2444.2
197.764	2460.96
197.839	2477.48
197.914	2471.95
197.989	2492.19
198.065	2502.47
198.14	2552.6
198.215	2580.41
198.29	2589.51
198.365	2605.18
198.44	2614.89
198.515	2642.66
198.59	2661.91
198.665	2685.86
198.74	2694.92
198.815	2697.92
198.89	2720.69
198.965	2755.05
199.04	2750.57
199.115	2766.34
199.19	2807.84
199.265	2809.08
199.34	2818.75
199.415	2854.7
199.49	2876.09
199.565	2886.19
199.64	2914.64
199.715	2910.78
199.79	2920.31
199.865	2930.51
199.94	2930.99
200.015	2964.36
200.09	2968.37
200.165	2973.23
200.24	2982.67
200.315	3022.99
200.39	3038.21
200.464	3045.26
200.539	3046.64
200.614	3063.76
200.689	3090.03
200.764	3096.81
200.839	3118.3
200.914	3126.41
200.989	3113.67
201.063	3128.4
201.138	3115.87
201.213	3116.59
201.288	3098.14
201.363	3101.52
201.438	3103.33
201.512	3120.92
201.587	3102.08
201.662	3109.62
201.737	3124.02
201.812	3133.9
201.886	3098.43
201.961	3108.26
202.036	3095.77
202.111	3093.29
202.186	3067.42
202.26	3049.62
202.335	3031.93
202.41	3027.02
202.485	3011.29
202.559	2995.32
202.634	2971.58
202.709	2984.11
202.784	2966.66
202.858	2974.67
202.933	2963.85
203.008	2962.23
203.082	2947.64
203.157	2955.65
203.232	2920.29
203.306	2906.55
203.381	2882.71
203.456	2869.7
203.53	2862.54
203.605	2857.73
203.68	2846.57
203.754	2856.15
203.829	2858.96
203.904	2856.05
203.978	2862.06
204.053	2887.33
204.127	2896.43
204.202	2924.09
204.277	2933.43
204.351	2955.7
204.426	2977.74
204.5	3003.16
204.575	2999.58
204.65	3045.72
204.724	3074.93
204.799	3126.18
204.873	3169.28
204.948	3220.47
205.022	3260.26
205.097	3304.91
205.171	3376.65
205.246	3447.28
205.32	3509.89
205.395	3577.24
205.469	3639.11
205.544	3718.14
205.618	3779.44
205.693	3877.75
205.767	3943.41
205.842	4048.89
205.916	4132.4
205.991	4216.19
206.065	4317.45
206.14	4435.78
206.214	4537.46
206.289	4641.29
206.363	4764.99
206.438	4875.48
206.512	5000.31
206.586	5146.64
206.661	5277.65
206.735	5384.02
206.81	5514.98
206.884	5663.11
206.958	5782.89
207.033	5939.12
207.107	6087.76
207.181	6268.81
207.256	6416.02
207.33	6590.18
207.405	6758.91
207.479	6939.98
207.553	7106.8
207.628	7252.03
207.702	7431.37
207.776	7588.61
207.851	7760.05
207.925	7943.82
207.999	8118.21
208.073	8291.33
208.148	8463.73
208.222	8631.63
208.296	8839.68
208.371	9038.32
208.445	9231.69
208.519	9449.04
208.593	9648.58
208.668	9832.11
208.742	10011.35
208.816	10193.85
208.89	10395.12
208.965	10580.04
209.039	10776.82
209.113	10982.94
209.187	11189.43
209.261	11371.53
209.336	11583.71
209.41	11792.82
209.484	11979.2
209.558	12191.94
209.632	12389.45
209.707	12592.23
209.781	12801.42
209.855	13003.2
209.929	13206.52
210.003	13400.49
210.077	13579.91
210.151	13809.31
210.226	14032.01
210.3	14248.63
210.374	14451.14
210.448	14634.65
210.522	14830.06
210.596	15009.43
210.67	15192.6
210.744	15425.94
210.818	15638.55
210.892	15835.5
210.966	16002.9
211.041	16200.42
211.115	16374.41
211.189	16567.54
211.263	16749.92
211.337	16916.15
211.411	17100.16
211.485	17256.98
211.559	17438.38
211.633	17611.31
211.707	17741.42
211.781	17906
211.855	18034.09
211.929	18188.89
212.003	18329.03
212.077	18487.77
212.151	18660.44
212.225	18824.53
212.299	18956.52
212.373	19088.47
212.447	19226.83
212.52	19404.03
212.594	19547.44
212.668	19696.69
212.742	19824.21
212.816	19962.13
212.89	20100.68
212.964	20236.59
213.038	20378.13
213.112	20519.63
213.186	20658.91
213.26	20766.72
213.333	20846.82
213.407	20970.87
213.481	21088.81
213.555	21219.75
213.629	21333.79
213.703	21442.58
213.777	21562.02
213.85	21660.69
213.924	21813.79
213.998	21930.06
214.072	22028.69
214.146	22122.01
214.219	22230.72
214.293	22329.64
214.367	22430.93
214.441	22545.86
214.515	22634.33
214.588	22703.95
214.662	22760.11
214.736	22842.8
214.81	22944.09
214.883	23045.09
214.957	23125.08
215.031	23215.68
215.105	23284.96
215.178	23354.69
215.252	23425.96
215.326	23472.78
215.4	23532.29
215.473	23556.3
215.547	23618.91
215.621	23688.74
215.694	23770.78
215.768	23804.21
215.842	23859.23
215.915	23916.73
215.989	23945.37
216.063	23989.56
216.136	24060.94
216.21	24125.62
216.284	24194.02
216.357	24260.44
216.431	24317.75
216.504	24382.2
216.578	24465.66
216.652	24527.4
216.725	24577.58
216.799	24642.47
216.873	24709.14
216.946	24766.64
217.02	24811.12
217.093	24852.42
217.167	24885.71
217.24	24919.73
217.314	24971.02
217.387	25015.98
217.461	25062.5
217.535	25128.65
217.608	25166.52
217.682	25196.73
217.755	25248.46
217.829	25270.71
217.902	25304.25
217.976	25336.05
218.049	25368.04
218.123	25373.11
218.196	25416.49
218.27	25450.03
218.343	25474.22
218.417	25503.27
218.49	25538.11
218.563	25587.77
218.637	25622.24
218.71	25664.57
218.784	25701.2
218.857	25741.07
218.931	25781.13
219.004	25808.4
219.077	25848.28
219.151	25885.49
219.224	25908.61
219.298	25929.85
219.371	25966.44
219.444	25984.3
219.518	26013.6
219.591	26039.86
219.665	26104.94
219.738	26129.13
219.811	26147.23
219.885	26173.11
219.958	26206.95
220.031	26228.72
220.105	26260.59
220.178	26286.32
220.251	26297.57
220.325	26312.92
220.398	26342.04
220.471	26365.11
220.544	26388.63
220.618	26390.65
220.691	26415.95
220.764	26452.94
220.838	26474.91
220.911	26499.19
220.984	26529.66
221.057	26558.92
221.131	26575.19
221.204	26547.76
221.277	26574.8
221.35	26617.88
221.424	26614.78
221.497	26625.07
221.57	26628.5
221.643	26633.23
221.716	26649.99
221.79	26645.64
221.863	26653.22
221.936	26646.51
222.009	26642.6
222.082	26636.95
222.155	26634.39
222.229	26646.42
222.302	26642.84
222.375	26645.21
222.448	26640.77
222.521	26636.28
222.594	26623.91
222.667	26613.53
222.74	26616.53
222.814	26597.65
222.887	26581.51
222.96	26585.23
223.033	26586.01
223.106	26578.81
223.179	26577.6
223.252	26568.04
223.325	26575.04
223.398	26566.59
223.471	26569.06
223.544	26563.07
223.617	26559.45
223.69	26555.54
223.763	26534.58
223.837	26519.76
223.91	26513.24
223.983	26488.27
224.056	26463.41
224.129	26450.76
224.202	26445.45
224.275	26431.54
224.348	26416.77
224.42	26380.27
224.493	26362.84
224.566	26338.12
224.639	26337.3
224.712	26305.67
224.785	26278.54
224.858	26255.94
224.931	26228.33
225.004	26196.22
225.077	26175.9
225.15	26137.28
225.223	26114.06
225.296	26109.08
225.369	26076.06
225.442	26036.91
225.514	26003.8
225.587	25989.13
225.66	25966.29
225.733	25948.91
225.806	25930.47
225.879	25901.32
225.952	25868.06
226.025	25844.94
226.097	25824.14
226.17	25796.81
226.243	25762.93
226.316	25734.5
226.389	25698.54
226.461	25677.93
226.534	25650.28
226.607	25622.53
226.68	25623.93
226.753	25591.11
226.825	25539.99
226.898	25524.4
226.971	25504.62
227.044	25500.51
227.117	25478.94
227.189	25460.55
227.262	25450.75
227.335	25414.75
227.407	25386.18
227.48	25369.29
227.553	25352.35
227.626	25317.51
227.698	25282.23
227.771	25250.97
227.844	25218.3
227.916	25199.19
227.989	25155.57
228.062	25121.07
228.134	25110.5
228.207	25068.04
228.28	25037.16
228.352	25009.56
228.425	24979.98
228.498	24954.6
228.57	24907.94
228.643	24882.42
228.716	24844.16
228.788	24794.74
228.861	24767.1
228.934	24742.93
229.006	24704.67
229.079	24664.53
229.151	24631.24
229.224	24585.46
229.296	24558.16
229.369	24544.74
229.442	24522.6
229.514	24491.82
229.587	24485.51
229.659	24439.43
229.732	24412.08
229.804	24387.19
229.877	24382.66
229.949	24363.17
230.022	24344.79
230.094	24314.78
230.167	24284.63
230.239	24242.86
230.312	24205.58
230.384	24191.68
230.457	24169.3
230.529	24149.29
230.602	24108.96
230.674	24085.86
230.747	24073.13
230.819	24062.08
230.892	24006.13
230.964	23980.37
231.037	23946.04
231.109	23903.06
231.181	23880.35
231.254	23843.69
231.326	23809.26
231.399	23771.88
231.471	23730.01
231.544	23681.01
231.616	23666.06
231.688	23632.01
231.761	23596.04
231.833	23564.41
231.905	23510.25
231.978	23475.33
232.05	23437.57
232.122	23412.93
232.195	23371.61
232.267	23357.33
232.339	23298.89
232.412	23286.25
232.484	23245.22
232.556	23215.32
232.629	23198.88
232.701	23175.93
232.773	23134.85
232.846	23097.57
232.918	23052.44
232.99	23025.15
233.062	22993.18
233.135	22957.16
233.207	22915.26
233.279	22898.44
233.351	22871.24
233.424	22836.14
233.496	22781.28
233.568	22771.97
233.64	22719.66
233.713	22680.85
233.785	22637.65
233.857	22626.57
233.929	22561.67
234.001	22541.04
234.074	22523.78
234.146	22475.33
234.218	22422.44
234.29	22390.38
234.362	22345.41
234.434	22298.26
234.507	22235.35
234.579	22185.41
234.651	22145.73
234.723	22113.34
234.795	22072.94
234.867	22028.98
234.939	21996.92
235.012	21973.35
235.084	21935.41
235.156	21914.2
235.228	21872.8
235.3	21824.21
235.372	21786.27
235.444	21765.26
235.516	21701.82
235.588	21660.7
235.66	21611.01
235.732	21564.98
235.804	21577.12
235.876	21554.86
235.948	21539.53
236.02	21512.63
236.092	21474.85
236.164	21434.31
236.236	21396.57
236.308	21350.59
236.38	21317
236.452	21266.97
236.524	21227.78
236.596	21208.02
236.668	21174.81
236.74	21139.24
236.812	21103.53
236.884	21073.02
236.956	21039
237.028	20988.39
237.1	20939.81
237.172	20928.2
237.244	20907.18
237.316	20833.44
237.388	20785.73
237.46	20727.36
237.532	20689.77
237.604	20649.14
237.675	20623.02
237.747	20584.8
237.819	20535.5
237.891	20489.24
237.963	20450.44
238.035	20398.2
238.107	20307.79
238.178	20277.77
238.25	20240.66
238.322	20223.36
238.394	20162.59
238.466	20113.67
238.538	20079.55
238.609	20037.92
238.681	19965
238.753	19917.82
238.825	19872.23
238.897	19829.49
238.968	19811.22
239.04	19772.05
239.112	19761.01
239.184	19710.36
239.255	19664.53
239.327	19635.47
239.399	19595.33
239.471	19562.8
239.542	19533.45
239.614	19517.94
239.686	19441.07
239.758	19411.87
239.829	19352.55
239.901	19322.48
239.973	19284.07
240.044	19254.48
240.116	19223.45
240.188	19188.94
240.259	19145.33
240.331	19100.13
240.403	19065.53
240.474	19009.53
240.546	18962.5
240.618	18898.55
240.689	18853.25
240.761	18822.07
240.833	18797.84
240.904	18753.93
240.976	18707.77
241.048	18672.73
241.119	18635.24
241.191	18619.58
241.262	18590.96
241.334	18562.52
241.405	18518.48
241.477	18477.9
241.549	18429.37
241.62	18392.85
241.692	18369.09
241.763	18352.99
241.835	18309.43
241.906	18283.02
241.978	18229.77
242.049	18208.37
242.121	18177.05
242.192	18150.98
242.264	18091.03
242.335	18032.14
242.407	18002.26
242.478	17963.76
242.55	17928.72
242.621	17881.93
242.693	17836.14
242.764	17793.16
242.836	17743.47
242.907	17708.97
242.979	17673.98
243.05	17647.33
243.122	17607.48
243.193	17557.26
243.264	17497.4
243.336	17464.83
243.407	17437.07
243.479	17414.56
243.55	17383
243.622	17349.65
243.693	17303.53
243.764	17283.86
243.836	17242.95
243.907	17201.16
243.978	17166.7
244.05	17135.28
244.121	17085.21
244.192	17051.66
244.264	16996.1
244.335	16958.65
244.407	16920.19
244.478	16892.04
244.549	16856.57
244.62	16805.68
244.692	16768.37
244.763	16739.55
244.834	16701
244.906	16651.07
244.977	16618.2
245.048	16597.67
245.119	16553.76
245.191	16511.39
245.262	16452.06
245.333	16433.03
245.405	16405.75
245.476	16377.94
245.547	16345.98
245.618	16326.41
245.689	16302.17
245.761	16277.16
245.832	16244.33
245.903	16207.51
245.974	16170.4
246.045	16131.98
246.117	16122.83
246.188	16075.45
246.259	16024.79
246.33	15989.41
246.401	15947.86
246.473	15900.19
246.544	15849.06
246.615	15827.85
246.686	15790.4
246.757	15769.57
246.828	15727.78
246.899	15707.64
246.97	15653.27
247.042	15608.58
247.113	15578.99
247.184	15565.45
247.255	15523.17
247.326	15488.71
247.397	15455.07
247.468	15424.27
247.539	15396.36
247.61	15345.55
247.681	15329.16
247.752	15313.84
247.823	15273.59
247.894	15252.71
247.965	15210.1
248.037	15172.02
248.108	15124.01
248.179	15094.8
248.25	15070.65
248.321	15039.56
248.392	14993.82
248.463	14987.7
248.534	14953.95
248.605	14929.42
248.675	14890.81
248.746	14865.21
248.817	14844.58
248.888	14825.64
248.959	14784.23
249.03	14758.3
249.101	14730.72
249.172	14700.06
249.243	14646.94
249.314	14640.87
249.385	14608.67
249.456	14596.28
249.527	14570.78
249.598	14554.15
249.669	14529.23
249.739	14506.18
249.81	14488.01
249.881	14453.5
249.952	14429.68
250.023	14407.12
250.094	14357.91
250.165	14316.98
250.235	14283.86
250.306	14249.83
250.377	14211.22
250.448	14183.98
250.519	14140.35
250.59	14127.97
250.66	14097.45
250.731	14086.17
250.802	14048.57
250.873	14027.7
250.944	14001.67
251.014	13967.73
251.085	13958.52
251.156	13931.81
251.227	13909.78
251.297	13892.29
251.368	13876.62
251.439	13853.14
251.51	13847.6
251.58	13816.36
251.651	13780.78
251.722	13772.88
251.792	13730.55
251.863	13695.99
251.934	13690.35
252.005	13685.48
252.075	13660.07
252.146	13646.34
252.217	13636.26
252.287	13619.53
252.358	13594.75
252.429	13590.13
252.499	13564.48
252.57	13540.57
252.641	13527.94
252.711	13506.34
252.782	13467.1
252.852	13459.54
252.923	13437.12
252.994	13409.21
253.064	13401.45
253.135	13376.81
253.205	13340.95
253.276	13343.21
253.347	13343.84
253.417	13315.06
253.488	13289.56
253.558	13260.97
253.629	13236.97
253.699	13217.01
253.77	13199.36
253.841	13170.34
253.911	13146.43
253.982	13123.15
254.052	13112.88
254.123	13089.84
254.193	13067.28
254.264	13090.42
254.334	13054.46
254.405	13015.51
254.475	12976.27
254.546	12950.67
254.616	12947.82
254.687	12939.49
254.757	12920.15
254.827	12891.71
254.898	12872.82
254.968	12852.18
255.039	12825.77
255.109	12814.83
255.18	12788.7
255.25	12745.84
255.321	12735.62
255.391	12698.75
255.461	12701.83
255.532	12648.56
255.602	12625.04
255.673	12584.21
255.743	12543.72
255.813	12504.38
255.884	12499.08
255.954	12484.19
256.024	12483.42
256.095	12458.11
256.165	12421.91
256.235	12403.73
256.306	12367.92
256.376	12358.81
256.446	12347.96
256.517	12334.66
256.587	12319.52
256.657	12297.83
256.728	12283.47
256.798	12258.64
256.868	12238.2
256.938	12207.88
257.009	12205.38
257.079	12201.76
257.149	12213.76
257.219	12175.15
257.29	12161.18
257.36	12126.18
257.43	12114.81
257.5	12072.92
257.571	12054.7
257.641	12042.74
257.711	12010.35
257.781	12007.41
257.852	11990.44
257.922	11948.03
257.992	11927.4
258.062	11904.31
258.132	11898.43
258.202	11878.28
258.273	11863
258.343	11861.89
258.413	11836.78
258.483	11816.54
258.553	11776.43
258.623	11745.25
258.693	11732.62
258.764	11734.45
258.834	11718.07
258.904	11703.94
258.974	11679.65
259.044	11655.26
259.114	11640.03
259.184	11628.08
259.254	11606.15
259.324	11557.9
259.394	11547.3
259.464	11546.19
259.535	11527.01
259.605	11495.97
259.675	11474.43
259.745	11464.35
259.815	11436.26
259.885	11406.42
259.955	11418.09
260.025	11398.62
260.095	11372.4
260.165	11356.98
260.235	11349.99
260.305	11336.88
260.375	11310.13
260.445	11317.26
260.515	11316.73
260.585	11310.23
260.655	11295.77
260.725	11292.59
260.795	11293.31
260.865	11299.62
260.934	11273.65
261.004	11264.49
261.074	11246.85
261.144	11244.44
261.214	11227.72
261.284	11202.66
261.354	11205.02
261.424	11171.43
261.494	11171.81
261.564	11163.96
261.634	11160.05
261.703	11121.74
261.773	11118.51
261.843	11110.95
261.913	11090.42
261.983	11059.28
262.053	11047.53
262.123	11023.19
262.192	10989.89
262.262	10983.24
262.332	10954.52
262.402	10941.7
262.472	10924.69
262.541	10892.7
262.611	10883.25
262.681	10864.31
262.751	10865.28
262.821	10836.75
262.89	10805.43
262.96	10792.9
263.03	10789.48
263.1	10775.98
263.169	10763.7
263.239	10745.72
263.309	10740.95
263.379	10727.7
263.448	10710.16
263.518	10699.03
263.588	10687.8
263.657	10690.69
263.727	10687.03
263.797	10667.9
263.867	10652.1
263.936	10623.82
264.006	10622.95
264.076	10612.54
264.145	10588.45
264.215	10562.53
264.285	10566.57
264.354	10537.67
264.424	10518.54
264.494	10491.27
264.563	10464.48
264.633	10470.36
264.702	10458.26
264.772	10431.42
264.842	10419.19
264.911	10406.76
264.981	10377.56
265.05	10360.21
265.12	10338.24
265.19	10322.15
265.259	10321.38
265.329	10310.64
265.398	10300.33
265.468	10311.5
265.537	10286.26
265.607	10280.14
265.676	10275.61
265.746	10261.83
265.815	10257.5
265.885	10242.42
265.955	10222.96
266.024	10215.92
266.094	10171.22
266.163	10169.73
266.232	10169.24
266.302	10155.13
266.371	10147.04
266.441	10135.04
266.51	10137.93
266.58	10126.95
266.649	10103.34
266.719	10099.39
266.788	10092.84
266.858	10093.46
266.927	10059.16
266.996	10051.55
267.066	10046.16
267.135	10017.45
267.205	10008.44
267.274	9997.7
267.343	9999.44
267.413	9983.93
267.482	9984.84
267.552	10000.98
267.621	9971.93
267.69	9935.42
267.76	9922.08
267.829	9920.1
267.898	9912.25
267.968	9884.99
268.037	9876.22
268.106	9870.78
268.176	9835.18
268.245	9820.44
268.314	9805.8
268.384	9807.34
268.453	9799.92
268.522	9788.22
268.592	9792.46
268.661	9775.26
268.73	9770.15
268.799	9744.1
268.869	9755.32
268.938	9720.11
269.007	9692.32
269.076	9687.45
269.146	9687.02
269.215	9675.13
269.284	9675.17
269.353	9658.27
269.422	9645.03
269.492	9629.52
269.561	9593.64
269.63	9597.06
269.699	9580.35
269.768	9566.77
269.838	9558.68
269.907	9552.61
269.976	9534.5
270.045	9508.54
270.114	9507.2
270.183	9490.49
270.253	9483.84
270.322	9451.72
270.391	9444.69
270.46	9451.1
270.529	9440.65
270.598	9438.09
270.667	9431.69
270.736	9408.62
270.806	9400.29
270.875	9401.93
270.944	9386.61
271.013	9404.72
271.082	9392.34
271.151	9392.49
271.22	9368.08
271.289	9346.07
271.358	9334.22
271.427	9323.97
271.496	9311.79
271.565	9295.8
271.634	9288.43
271.703	9313.96
271.772	9318.68
271.841	9302.21
271.91	9282.08
271.979	9276.5
272.048	9252.23
272.117	9249.1
272.186	9235.71
272.255	9237.21
272.324	9230.85
272.393	9227.19
272.462	9213.76
272.531	9208.99
272.6	9193.29
272.669	9200.13
272.738	9189.63
272.807	9184.43
272.876	9163.69
272.945	9194.26
273.013	9190.36
273.082	9198.35
273.151	9153.95
273.22	9150.1
273.289	9144.08
273.358	9151.6
273.427	9141
273.496	9144.52
273.564	9139.9
273.633	9140.62
273.702	9125.79
273.771	9116.93
273.84	9111.88
273.909	9109.52
273.977	9102.73
274.046	9090.35
274.115	9094.01
274.184	9082.65
274.253	9068.07
274.322	9079.47
274.39	9041.06
274.459	9031.91
274.528	9001.19
274.597	8995.47
274.665	8987.86
274.734	8992.62
274.803	8976.64
274.872	8971.44
274.94	8953.87
275.009	9012.54
275.078	8993.52
275.147	8989.76
275.215	8990.1
275.284	8996.84
275.353	8980.81
275.421	8960.26
275.49	8977.39
275.559	8964.92
275.627	8961.94
275.696	8958.48
275.765	8952.89
275.833	8952.31
275.902	8946.1
275.971	8958.33
276.039	8968.15
276.108	8973.45
276.177	8975.08
276.245	8971.62
276.314	8962.62
276.383	8968.54
276.451	8893.94
276.52	8893.36
276.588	8901.49
276.657	8901.93
276.725	8895.24
276.794	8897.21
276.863	8908.91
276.931	8883.73
277	8891.77
277.068	8899.71
277.137	8913.19
277.205	8916.51
277.274	8936.92
277.342	8947.32
277.411	8924.56
277.48	8913.53
277.548	8899.48
277.617	8899.76
277.685	8887.78
277.754	8893.51
277.822	8887.88
277.89	8908.19
277.959	8907.57
278.027	8887.2
278.096	8879.93
278.164	8902.37
278.233	8890.24
278.301	8877.1
278.37	8885.48
278.438	8871.37
278.507	8871.23
278.575	8847.69
278.643	8841.33
278.712	8816.78
278.78	8801.72
278.849	8820.58
278.917	8830.02
278.985	8827.47
279.054	8826.65
279.122	8840.13
279.191	8840.7
279.259	8840.22
279.327	8814.03
279.396	8835.07
279.464	8831.22
279.532	8831.8
279.601	8822.94
279.669	8820.44
279.737	8828.72
279.806	8831.12
279.874	8837.33
279.942	8832.71
280.011	8830.5
280.079	8836.08
280.147	8852.69
280.215	8861.3
280.284	8856.35
280.352	8840.32
280.42	8851.68
280.488	8843.25
280.557	8834.59
280.625	8837.48
280.693	8833.58
280.761	8836.42
280.83	8813.12
280.898	8829.15
280.966	8817.93
281.034	8786.69
281.102	8775.48
281.171	8774.37
281.239	8781.26
281.307	8772.06
281.375	8763.74
281.443	8789.78
281.512	8784.53
281.58	8792.23
281.648	8774.28
281.716	8772.11
281.784	8775.72
281.852	8765.81
281.92	8761.28
281.989	8777.99
282.057	8760.8
282.125	8811.74
282.193	8808.95
282.261	8811.89
282.329	8802.31
282.397	8801.88
282.465	8804.38
282.533	8822.18
282.601	8802.93
282.67	8781.66
282.738	8775.06
282.806	8785.94
282.874	8772.99
282.942	8771.31
283.01	8757.44
283.078	8763.17
283.146	8755.23
283.214	8762.45
283.282	8765.77
283.35	8777.32
283.418	8760.71
283.486	8763.07
283.554	8712.09
283.622	8712.33
283.69	8707.61
283.758	8703.33
283.826	8708.62
283.894	8716.13
283.962	8730.43
284.03	8749.77
284.098	8750.78
284.165	8745.97
284.233	8744.53
284.301	8736.25
284.369	8735.62
284.437	8729.51
284.505	8723.97
284.573	8740.19
284.641	8728.11
284.709	8732.73
284.777	8717.28
284.845	8725.85
284.912	8732.88
284.98	8740.1
285.048	8738.22
285.116	8741.98
285.184	8758.58
285.252	8754.25
285.319	8744.91
285.387	8738.08
285.455	8723.4
285.523	8724.89
285.591	8725.03
285.659	8728.84
285.726	8736.87
285.794	8718.49
285.862	8719.21
285.93	8716.42
285.997	8710.5
286.065	8701.12
286.133	8690.67
286.201	8688.89
286.269	8678.01
286.336	8668.53
286.404	8656.55
286.472	8666.61
286.539	8647.45
286.607	8629.93
286.675	8629.45
286.743	8634.94
286.81	8626.23
286.878	8644.37
286.946	8641.19
287.013	8642.45
287.081	8639.46
287.149	8629.98
287.216	8653.85
287.284	8646.25
287.352	8649.62
287.419	8645.96
287.487	8665.16
287.555	8673.2
287.622	8670.65
287.69	8671.76
287.758	8681.24
287.825	8681.77
287.893	8667.47
287.96	8675.51
288.028	8686.53
288.096	8687.35
288.163	8689.51
288.231	8679.26
288.298	8677.34
288.366	8689.75
288.433	8684.75
288.501	8674.4
288.569	8677.48
288.636	8669.11
288.704	8684.17
288.771	8694.95
288.839	8688.79
288.906	8678.4
288.974	8681.43
289.041	8681.19
289.109	8670.55
289.176	8680.18
289.244	8683.93
289.311	8696.88
289.379	8708.62
289.446	8706.94
289.514	8712.86
289.581	8716.18
289.649	8720.51
289.716	8720.03
289.783	8712.76
289.851	8729.8
289.918	8735.62
289.986	8741.64
290.053	8750.83
290.121	8752.13
290.188	8752.71
290.255	8775.81
290.323	8776.39
290.39	8772.59
290.458	8780.43
290.525	8801.32
290.592	8794.1
290.66	8792.66
290.727	8786.35
290.794	8796.89
290.862	8802.33
290.929	8804.26
290.996	8802.38
291.064	8811.48
291.131	8821.01
291.198	8830.59
291.266	8833.81
291.333	8830.11
291.4	8835.35
291.468	8848.93
291.535	8844.79
291.602	8850.13
291.669	8842.05
291.737	8851.53
291.804	8854.42
291.871	8867.8
291.938	8872.23
292.006	8900.15
292.073	8920.37
292.14	8927.73
292.207	8926.62
292.275	8929.32
292.342	8936.3
292.409	8964.08
292.476	8992.53
292.543	8985.84
292.611	8989.98
292.678	9004.71
292.745	9038.89
292.812	9046.01
292.879	9046.01
292.946	9049.96
293.014	9060.36
293.081	9071.63
293.148	9079.66
293.215	9096.27
293.282	9096.08
293.349	9103.06
293.416	9085.58
293.484	9099.07
293.551	9112.79
293.618	9123.96
293.685	9142.64
293.752	9135.27
293.819	9130.79
293.886	9115.48
293.953	9118.03
294.02	9131.13
294.087	9131.95
294.154	9121.69
294.221	9142.01
294.288	9143.41
294.356	9160.69
294.423	9166.37
294.49	9161.85
294.557	9172.97
294.624	9165.22
294.691	9184.91
294.758	9184.67
294.825	9190.35
294.892	9178.41
294.959	9180.96
295.026	9188.09
295.093	9184.72
295.16	9188.95
295.226	9186.35
295.293	9213.9
295.36	9225.74
295.427	9231.81
295.494	9249.67
295.561	9262.29
295.628	9280.01
295.695	9292.82
295.762	9295.95
295.829	9308.81
295.896	9324.74
295.963	9333.84
296.03	9342.41
296.096	9346.7
296.163	9364.71
296.23	9379.59
296.297	9397.88
296.364	9396.83
296.431	9399.76
296.498	9392.93
296.564	9423.31
296.631	9427.3
296.698	9403.85
296.765	9422.49
296.832	9420.13
296.899	9405.06
296.965	9418.11
297.032	9400.72
297.099	9411.27
297.166	9422.34
297.233	9408.81
297.299	9400
297.366	9403.08
297.433	9404.62
297.5	9413.73
297.566	9409.2
297.633	9404.62
297.7	9406.07
297.767	9407.37
297.833	9412.57
297.9	9416.04
297.967	9397.83
298.033	9415.41
298.1	9452.4
298.167	9441.99
298.234	9445.85
298.3	9453.31
298.367	9446.42
298.434	9452.93
298.5	9445.7
298.567	9436.46
298.634	9446.71
298.7	9470.98
298.767	9471.61
298.834	9488.13
298.9	9484.61
298.967	9475.85
299.033	9495.69
299.1	9512.79
299.167	9529.21
299.233	9532.62
299.3	9548.37
299.366	9563.44
299.433	9575.24
299.5	9547.55
299.566	9554.73
299.633	9569.56
299.699	9585.31
299.766	9582.95
299.832	9586.66
299.899	9596
299.965	9611.84
300.032	9605.68
300.099	9614.45
300.165	9616.52
300.232	9611.8
300.298	9613.48
300.365	9635.44
300.431	9633.18
300.498	9623.35
300.564	9631.73
300.631	9639.58
300.697	9651.43
300.763	9658.56
300.83	9656.29
300.896	9672.33
300.963	9684.23
301.029	9685.91
301.096	9688.95
301.162	9701.23
301.229	9696.12
301.295	9686.73
301.361	9688.71
301.428	9698.53
301.494	9677.15
301.561	9685.33
301.627	9687.79
301.693	9690.25
301.76	9688.85
301.826	9684.61
301.892	9694.39
301.959	9698.48
302.025	9697.95
302.092	9699.54
302.158	9695.88
302.224	9702.87
302.291	9699.93
302.357	9692.66
302.423	9686.35
302.49	9677.68
302.556	9689.91
302.622	9693.14
302.688	9706.62
302.755	9714.76
302.821	9721.31
302.887	9735.66
302.954	9733.21
303.02	9745.54
303.086	9751.17
303.152	9750.93
303.219	9748.14
303.285	9754.02
303.351	9758.35
303.417	9755.89
303.483	9740.96
303.55	9740.29
303.616	9733.5
303.682	9726.66
303.748	9724.78
303.815	9743.13
303.881	9763.51
303.947	9748.58
304.013	9750.02
304.079	9738.75
304.145	9719.97
304.212	9712.55
304.278	9706
304.344	9703.11
304.41	9687.75
304.476	9678.88
304.542	9682.5
304.608	9684.62
304.674	9673.2
304.741	9664.96
304.807	9662.99
304.873	9671.61
304.939	9683.46
305.005	9661.16
305.071	9658.46
305.137	9654.42
305.203	9625.66
305.269	9618.39
305.335	9631.35
305.401	9629.76
305.467	9634.77
305.533	9642.86
305.599	9654.13
305.666	9656.2
305.732	9663.62
305.798	9679.12
305.864	9704.75
305.93	9701.14
305.996	9707.78
306.062	9702.58
306.128	9696.22
306.194	9690.54
306.259	9691.75
306.325	9687.99
306.391	9707.3
306.457	9720.01
306.523	9727.48
306.589	9755.7
306.655	9741.25
306.721	9725.99
306.787	9708.07
306.853	9719.53
306.919	9705.28
306.985	9695.45
307.051	9690.93
307.117	9674.89
307.183	9664.29
307.248	9631.88
307.314	9631.4
307.38	9628.27
307.446	9637.42
307.512	9627.69
307.578	9631.98
307.644	9624.9
307.709	9627.26
307.775	9617.43
307.841	9606.69
307.907	9605.39
307.973	9580.73
308.039	9582.56
308.104	9588.39
308.17	9592.72
308.236	9578.32
308.302	9587.09
308.368	9577.89
308.433	9579
308.499	9574.13
308.565	9560.74
308.631	9565.41
308.696	9544.8
308.762	9531.32
308.828	9526.55
308.894	9514.61
308.959	9493.13
309.025	9481.58
309.091	9469.87
309.156	9463.56
309.222	9471.94
309.288	9458.65
309.354	9436.98
309.419	9434.34
309.485	9414.11
309.551	9419.94
309.616	9403.95
309.682	9396.15
309.748	9395.62
309.813	9393.11
309.879	9388.01
309.945	9375.06
310.01	9362.73
310.076	9372.79
310.141	9369.71
310.207	9350.06
310.273	9352.23
310.338	9356.18
310.404	9339.47
310.469	9329.02
310.535	9319.92
310.601	9296.9
310.666	9301.04
310.732	9318.67
310.797	9305.57
310.863	9295.75
310.928	9284.14
310.994	9290.59
311.059	9291.37
311.125	9285.49
311.191	9293.34
311.256	9284.77
311.322	9295.36
311.387	9279.96
311.453	9572.02
311.518	9542.51
311.584	9543.81
311.649	9552.77
311.715	9544.2
311.78	9544.73
311.846	9533.37
311.911	9539.43
311.976	9540.01
312.042	9524.84
312.107	9505.78
312.173	9499.81
312.238	9494.75
312.304	9493.11
312.369	9475.49
312.434	9458.83
312.5	9450.94
312.565	9417.33
312.631	9420.17
312.696	9409
312.761	9415.21
312.827	9108.55
312.892	9150.2
312.958	9143.7
313.023	9141.24
313.088	9144.47
313.154	9136.67
313.219	9128.72
313.284	9114.95
313.35	9114.04
313.415	9104.36
313.48	9097.05
313.546	9097.05
313.611	9110.62
313.676	9099.4
313.741	9097.58
313.807	9106.96
313.872	9110.72
313.937	9115.92
314.003	9122.08
314.068	9122.37
314.133	9127.23
314.198	9115.82
314.264	9085.58
314.329	9075.14
314.394	9069.17
314.459	9058.48
314.525	9071.14
314.59	9069.74
314.655	9058.86
314.72	9057.28
314.785	9063
314.851	9054.97
314.916	9034.03
314.981	9014.67
315.046	8999.17
315.111	8983.19
315.176	8966.92
315.242	8963.07
315.307	8958.06
315.372	8936.16
315.437	8926.48
315.502	8914.35
315.567	8925.95
315.632	8916.08
315.698	8917.24
315.763	8910.26
315.828	8905.11
315.893	8909.34
315.958	8905.44
316.023	8897.84
316.088	8883.11
316.153	8857.02
316.218	8850.28
316.283	8833.49
316.348	8820.88
316.413	8827.28
316.479	8812.55
316.544	8781.51
316.609	8752.92
316.674	8717.07
316.739	8685.02
316.804	8653.4
316.869	8618.85
316.934	8578.75
316.999	8549.45
317.064	8499.21
317.129	8455.95
317.194	8418.61
317.259	8363.22
317.324	8308.28
317.389	8266.13
317.454	8222.25
317.518	8192.09
317.583	8168.89
317.648	8148.79
317.713	8108.86
317.778	8046.65
317.843	8021.11
317.908	7982.68
317.973	7939.06
318.038	7909.67
318.103	7873.8
318.168	7842.63
318.233	7815.27
318.297	7766.26
318.362	7729.24
318.427	7689.96
318.492	7657.21
318.557	7610.82
318.622	7581.77
318.687	7558.7
318.751	7519.86
318.816	7487.36
318.881	7447.99
318.946	7395.3
319.011	7352.61
319.075	7307.87
319.14	7274.71
319.205	7224.87
319.27	7187.2
319.335	7146.83
319.399	7107.04
319.464	7076.29
319.529	7022.44
319.594	6976.16
319.658	6943.49
319.723	6905.44
319.788	6879.31
319.853	6827.67
319.917	6799.28
319.982	6750.71
320.047	6721.41
320.112	6692.31
320.176	6640.78
320.241	6604.91
320.306	6574.41
320.37	6530.76
320.435	6501
320.5	6472.72
320.564	6438.06
320.629	6404.36
320.694	6373.54
320.758	6330.92
320.823	6290.84
320.888	6264.54
320.952	6220.73
321.017	6180.89
321.082	6135.55
321.146	6099.65
321.211	6068.32
321.275	6024.38
321.34	5976.6
321.405	5925.32
321.469	5880.51
321.534	5835.68
321.598	5784.8
321.663	5750.84
321.727	5719.9
321.792	5671.42
321.857	5625.63
321.921	5584.97
321.986	5535.31
322.05	5476.31
322.115	5441.03
322.179	5393.58
322.244	5340.44
322.308	5306.31
322.373	5255.81
322.437	5215.09
322.502	5186.42
322.566	5139.13
322.631	5102.39
322.695	5062.26
322.76	5021.31
322.824	4983.33
322.889	4942.5
322.953	4902.52
323.018	4837.45
323.082	4766.32
323.146	4718.08
323.211	4664.37
323.275	4619.71
323.34	4578.38
323.404	4544.31
323.468	4499.76
323.533	4459.86
323.597	4413.19
323.662	4356.35
323.726	4323.97
323.79	4282.84
323.855	4215.57
323.919	4167.13
323.983	4121.75
324.048	4058.02
324.112	4201.56
324.177	4070.99
324.241	3863.66
324.305	3655.55
324.37	3452.89
324.434	3262.86
324.498	3218.53
324.562	3170.06
324.627	3109.51
324.691	3052.7
324.755	2987.04
324.82	2908.74
324.884	2827.57
324.948	2752.75
325.012	2661.69
325.077	2536.57
