Data from 20250703_urea_0.1M_MAYP1162681_17-51-04-784.txt Node
Date: Thu Jul 03 17:51:04 BST 2025
User: adleo
Spectrometer: MAYP116268
Trigger mode: 0
Integration Time (sec): 1.000000E0
Scans to average: 1
Electric dark correction enabled: true
Nonlinearity correction enabled: true
Boxcar width: 10
XAxis mode: Wavelengths
Number of Pixels in Spectrum: 2068
>>>>>Begin Spectral Data<<<<<
179.565	1349.63
179.642	1411.79
179.718	1457.63
179.795	1500.55
179.871	1535.69
179.948	1553.4
180.024	1576.12
180.101	1601.71
180.177	1617.71
180.254	1643.25
180.33	1666.6
180.407	1730.33
180.483	1837
180.56	1936.3
180.636	2031.46
180.712	2015.95
180.789	2026.89
180.865	2040.2
180.942	2048.76
181.018	2060.08
181.095	2070.5
181.171	2074.35
181.248	2077.3
181.324	2097.62
181.4	2105.66
181.477	2119.12
181.553	2137.67
181.63	2162.27
181.706	2180.54
181.782	2189
181.859	2185.15
181.935	2193
182.011	2189.1
182.088	2203.47
182.164	2225.98
182.24	2239.73
182.317	2252.86
182.393	2251.72
182.469	2267.94
182.546	2282.22
182.622	2288.98
182.698	2283.65
182.775	2292.88
182.851	2305.92
182.927	2296.3
183.003	2289.93
183.08	2285.46
183.156	2294.12
183.232	2287.55
183.308	2276.13
183.385	2286.97
183.461	2310.39
183.537	2309.58
183.613	2325.67
183.69	2319.48
183.766	2309.38
183.842	2317.43
183.918	2320
183.995	2335.23
184.071	2339.09
184.147	2333.95
184.223	2321.39
184.299	2339.48
184.375	2328.77
184.452	2334.72
184.528	2389
184.604	2402.32
184.68	2408.65
184.756	2415.41
184.832	2419.6
184.908	2422.27
184.985	2419.55
185.061	2401.8
185.137	2411.84
185.213	2397.37
185.289	2398.52
185.365	2389.95
185.441	2386.33
185.517	2401.76
185.593	2395.48
185.669	2391.67
185.745	2403.28
185.822	2420.41
185.898	2409.75
185.974	2419.79
186.05	2412.07
186.126	2375.17
186.202	2369.36
186.278	2367.22
186.354	2357.8
186.43	2367.32
186.506	2364.7
186.582	2363.37
186.658	2371.94
186.734	2351.28
186.81	2356.04
186.886	2357.04
186.962	2369.37
187.038	2368.18
187.114	2358.03
187.19	2362.79
187.266	2350.42
187.341	2352.9
187.417	2344
187.493	2342.66
187.569	2348.76
187.645	2341.38
187.721	2327.05
187.797	2333.76
187.873	2339.76
187.949	2334.33
188.025	2325.14
188.101	2329.66
188.176	2339.42
188.252	2331.85
188.328	2340.89
188.404	2338.7
188.48	2333.47
188.556	2328.52
188.632	2325.14
188.707	2328
188.783	2326.62
188.859	2325.09
188.935	2311.53
189.011	2320.09
189.086	2313.91
189.162	2303.1
189.238	2302.05
189.314	2301.67
189.39	2295.39
189.465	2288.87
189.541	2307.06
189.617	2291.88
189.693	2285.02
189.768	2285.83
189.844	2312.31
189.92	2301.7
189.996	2312.6
190.071	2326.83
190.147	2324.73
190.223	2336.21
190.298	2328.83
190.374	2318.4
190.45	2331.01
190.526	2340.96
190.601	2337.68
190.677	2338.63
190.753	2366.06
190.828	2368.87
190.904	2385.11
190.98	2403.86
191.055	2417.19
191.131	2405.67
191.207	2430.09
191.282	2442.89
191.358	2434.47
191.433	2420.7
191.509	2437.97
191.585	2435.35
191.66	2437.64
191.736	2443.45
191.811	2436.26
191.887	2452.45
191.963	2476.78
192.038	2483.16
192.114	2482.73
192.189	2484.78
192.265	2481.83
192.34	2457.87
192.416	2458.58
192.491	2453.15
192.567	2452.11
192.642	2449.87
192.718	2451.96
192.793	2436.06
192.869	2430.4
192.944	2431.78
193.02	2440.11
193.095	2443.2
193.171	2446.35
193.246	2445.68
193.322	2445.78
193.397	2443.87
193.473	2427.39
193.548	2407.16
193.624	2411.3
193.699	2408.54
193.775	2429.26
193.85	2431.45
193.925	2445.4
194.001	2445.97
194.076	2440.35
194.152	2431.4
194.227	2426.4
194.302	2414.07
194.378	2421.59
194.453	2416.26
194.529	2430.4
194.604	2412.12
194.679	2406.46
194.755	2388.75
194.83	2399.57
194.905	2399.14
194.981	2407.8
195.056	2401.09
195.131	2407.18
195.207	2404.8
195.282	2396.09
195.357	2372.9
195.433	2389.8
195.508	2375.66
195.583	2380.75
195.659	2393.56
195.734	2402.99
195.809	2403.28
195.884	2414.22
195.96	2413.08
196.035	2433.26
196.11	2428.12
196.185	2444.21
196.261	2446.83
196.336	2479.49
196.411	2466.67
196.486	2466.2
196.561	2462.82
196.637	2473.05
196.712	2490.01
196.787	2496.01
196.862	2513.34
196.937	2524.81
197.013	2531.19
197.088	2540.67
197.163	2566.82
197.238	2584.98
197.313	2584.41
197.388	2598.89
197.464	2632.15
197.539	2645.15
197.614	2638.1
197.689	2653.44
197.764	2671.97
197.839	2693.17
197.914	2687.6
197.989	2711.04
198.065	2728.71
198.14	2780.2
198.215	2806.88
198.29	2822.23
198.365	2834.28
198.44	2845.53
198.515	2874.27
198.59	2889.71
198.665	2919.16
198.74	2927.99
198.815	2927.84
198.89	2949.48
198.965	2982.2
199.04	2978.67
199.115	2992.77
199.19	3039.44
199.265	3040.54
199.34	3048.22
199.415	3086.33
199.49	3108.69
199.565	3118.42
199.64	3142.83
199.715	3140.26
199.79	3151.75
199.865	3158
199.94	3157.57
200.015	3192.06
200.09	3198.4
200.165	3206.22
200.24	3213.09
200.315	3258.31
200.39	3276.92
200.464	3284.36
200.539	3284.55
200.614	3301.58
200.689	3329.11
200.764	3333.02
200.839	3352.67
200.914	3361.21
200.989	3346.32
201.063	3362.25
201.138	3344.56
201.213	3347.48
201.288	3327.15
201.363	3333.16
201.438	3332.07
201.512	3349.33
201.587	3331.72
201.662	3334.87
201.737	3347.8
201.812	3359.21
201.886	3322.24
201.961	3334.94
202.036	3325.59
202.111	3325.31
202.186	3294.74
202.26	3279.42
202.335	3257.24
202.41	3252.42
202.485	3235.15
202.559	3220.75
202.634	3193.61
202.709	3206.38
202.784	3188.92
202.858	3194.26
202.933	3175.8
203.008	3171.99
203.082	3156.58
203.157	3162.17
203.232	3125.65
203.306	3112.76
203.381	3084.9
203.456	3068.73
203.53	3054.31
203.605	3042.3
203.68	3026.27
203.754	3029.13
203.829	3024.07
203.904	3020.88
203.978	3026.75
204.053	3047.59
204.127	3051.98
204.202	3073.15
204.277	3083.41
204.351	3099.87
204.426	3115.56
204.5	3132.74
204.575	3129.06
204.65	3166.95
204.724	3193.12
204.799	3235.94
204.873	3267.02
204.948	3306.43
205.022	3335.21
205.097	3367.26
205.171	3429.11
205.246	3489.39
205.32	3543.74
205.395	3596.42
205.469	3645.68
205.544	3714.88
205.618	3761.8
205.693	3841.13
205.767	3896.22
205.842	3988.17
205.916	4061.5
205.991	4134.14
206.065	4222.55
206.14	4324.95
206.214	4410.08
206.289	4488.09
206.363	4600.13
206.438	4695.54
206.512	4802.79
206.586	4925.64
206.661	5037.32
206.735	5119.35
206.81	5233.25
206.884	5366.5
206.958	5471.73
207.033	5610.15
207.107	5736.27
207.181	5894.1
207.256	6015.38
207.33	6171.51
207.405	6315.14
207.479	6466.55
207.553	6609.95
207.628	6735.73
207.702	6894.18
207.776	7029.99
207.851	7182.09
207.925	7341.78
207.999	7496.41
208.073	7647.07
208.148	7803.97
208.222	7948.92
208.296	8138.89
208.371	8306.19
208.445	8468.37
208.519	8659.71
208.593	8834.26
208.668	8988.63
208.742	9152.82
208.816	9309.69
208.89	9483.05
208.965	9641.12
209.039	9808.77
209.113	9992.36
209.187	10177.25
209.261	10331.48
209.336	10522.35
209.41	10705.04
209.484	10868
209.558	11050.38
209.632	11223.75
209.707	11400.18
209.781	11585.81
209.855	11773.91
209.929	11956.59
210.003	12133.95
210.077	12297.35
210.151	12509.2
210.226	12714.73
210.3	12909.86
210.374	13103.19
210.448	13265.5
210.522	13437.97
210.596	13611.99
210.67	13781.81
210.744	13984.61
210.818	14175.5
210.892	14345.37
210.966	14494.03
211.041	14665.69
211.115	14818.78
211.189	14997.14
211.263	15156.11
211.337	15315.66
211.411	15470.68
211.485	15609.74
211.559	15763.35
211.633	15907.57
211.707	16014.86
211.781	16168.94
211.855	16266.45
211.929	16389.4
212.003	16517.27
212.077	16671.21
212.151	16818.21
212.225	16955.23
212.299	17078.26
212.373	17201.21
212.447	17334.17
212.52	17497.65
212.594	17627
212.668	17767.29
212.742	17881.26
212.816	18005.64
212.89	18120.53
212.964	18243.56
213.038	18366.31
213.112	18512.18
213.186	18650.01
213.26	18742
213.333	18791.69
213.407	18914.14
213.481	19039.72
213.555	19146.61
213.629	19243.18
213.703	19341.68
213.777	19453.78
213.85	19547.99
213.924	19683.74
213.998	19789.57
214.072	19876.61
214.146	19966.53
214.219	20063.69
214.293	20146.77
214.367	20245.66
214.441	20353.61
214.515	20433.08
214.588	20495.15
214.662	20525.61
214.736	20592.07
214.81	20695.88
214.883	20800.31
214.957	20870.48
215.031	20944.46
215.105	21012.99
215.178	21082.25
215.252	21151.41
215.326	21198.36
215.4	21243.52
215.473	21270.36
215.547	21323.14
215.621	21385.03
215.694	21464.52
215.768	21500.28
215.842	21560.77
215.915	21613.17
215.989	21648.64
216.063	21702.92
216.136	21783.75
216.21	21856.15
216.284	21926.38
216.357	21990.45
216.431	22049.98
216.504	22113.95
216.578	22186.98
216.652	22258.61
216.725	22305.04
216.799	22365.93
216.873	22420.79
216.946	22485.09
217.02	22530.99
217.093	22576.5
217.167	22615.84
217.24	22637.73
217.314	22686.13
217.387	22732.03
217.461	22783.18
217.535	22837.47
217.608	22876.91
217.682	22917.26
217.755	22971.65
217.829	23002.27
217.902	23041.57
217.976	23073.68
218.049	23115.58
218.123	23146.97
218.196	23195.19
218.27	23229.09
218.343	23259.81
218.417	23302.82
218.49	23338.84
218.563	23403.65
218.637	23448.74
218.71	23504.01
218.784	23557.25
218.857	23610.49
218.931	23651.52
219.004	23694.79
219.077	23746.05
219.151	23776.96
219.224	23805.32
219.298	23846.7
219.371	23909.6
219.444	23932.84
219.518	23982.47
219.591	24013.1
219.665	24076.39
219.738	24108.7
219.811	24138.03
219.885	24176.13
219.958	24222.54
220.031	24252.73
220.105	24279.4
220.178	24314.38
220.251	24337.97
220.325	24370.77
220.398	24405.84
220.471	24450.22
220.544	24468.6
220.618	24484.04
220.691	24526.77
220.764	24554.7
220.838	24573.37
220.911	24578.44
220.984	24626.87
221.057	24657.37
221.131	24690.12
221.204	24674.97
221.277	24713.91
221.35	24765.68
221.424	24776.48
221.497	24795.3
221.57	24817.2
221.643	24841.71
221.716	24864.87
221.79	24870.42
221.863	24887.93
221.936	24896.14
222.009	24891.7
222.082	24932.28
222.155	24943.76
222.229	24976.86
222.302	24996.36
222.375	25015.46
222.448	25039.69
222.521	25052.52
222.594	25056.09
222.667	25046.68
222.74	25072.21
222.814	25068.25
222.887	25072.06
222.96	25095.95
223.033	25109.6
223.106	25130.01
223.179	25144.49
223.252	25148.69
223.325	25155.88
223.398	25158.53
223.471	25168.47
223.544	25181.74
223.617	25163.02
223.69	25166.15
223.763	25146.32
223.837	25151.96
223.91	25157.56
223.983	25138.55
224.056	25111.43
224.129	25109.5
224.202	25123.16
224.275	25112.01
224.348	25102.79
224.42	25071.14
224.493	25048.12
224.566	25040.07
224.639	25037.07
224.712	25019.32
224.785	25006
224.858	24996.78
224.931	24975.31
225.004	24952.87
225.077	24949.69
225.15	24921.66
225.223	24916.69
225.296	24933.58
225.369	24910.03
225.442	24895.51
225.514	24888.85
225.587	24894.54
225.66	24886.24
225.733	24875.82
225.806	24871.05
225.879	24857.73
225.952	24848.52
226.025	24855.03
226.097	24854.06
226.17	24835.39
226.243	24810.69
226.316	24793.9
226.389	24788.21
226.461	24790.04
226.534	24782.51
226.607	24763.02
226.68	24772.91
226.753	24748.89
226.825	24704.11
226.898	24699.34
226.971	24674.2
227.044	24661.9
227.117	24645.69
227.189	24632.81
227.262	24621.9
227.335	24601.69
227.407	24583.45
227.48	24575.49
227.553	24548.14
227.626	24527.44
227.698	24506.84
227.771	24483.49
227.844	24463.76
227.916	24448.42
227.989	24414.17
228.062	24386.15
228.134	24381.37
228.207	24355.52
228.28	24336.75
228.352	24311.48
228.425	24287.31
228.498	24276.46
228.57	24243.42
228.643	24232.18
228.716	24207.48
228.788	24182.39
228.861	24155.29
228.934	24143.61
229.006	24107.49
229.079	24083.76
229.151	24039.09
229.224	23996.74
229.296	23976.25
229.369	23969.93
229.442	23959.99
229.514	23937.32
229.587	23933.56
229.659	23896.81
229.732	23879.88
229.804	23870.43
229.877	23880.8
229.949	23878.05
230.022	23877.9
230.094	23858.56
230.167	23829.38
230.239	23794.66
230.312	23773.68
230.384	23774.69
230.457	23752.75
230.529	23742.48
230.602	23727.24
230.674	23714.7
230.747	23715.76
230.819	23716.53
230.892	23658.95
230.964	23631.56
231.037	23615.21
231.109	23587.38
231.181	23573.3
231.254	23533.42
231.326	23503.53
231.399	23469.81
231.471	23433.93
231.544	23380.45
231.616	23364.06
231.688	23342.79
231.761	23318.01
231.833	23289.36
231.905	23234.34
231.978	23200.83
232.05	23177.35
232.122	23154.3
232.195	23116.01
232.267	23102.13
232.339	23059.74
232.412	23058.49
232.484	23016.1
232.556	22972.95
232.629	22964.23
232.701	22942.29
232.773	22918.47
232.846	22883.8
232.918	22857.72
232.99	22830.52
233.062	22815.58
233.135	22802.03
233.207	22759.5
233.279	22734.82
233.351	22706.09
233.424	22672.58
233.496	22640.33
233.568	22625.91
233.64	22571.34
233.713	22541.64
233.785	22509.39
233.857	22477.57
233.929	22429.55
234.001	22418.51
234.074	22403.81
234.146	22350.25
234.218	22315.68
234.29	22288.59
234.362	22260.39
234.434	22205.38
234.507	22157.76
234.579	22101.5
234.651	22051.7
234.723	22026.93
234.795	21998.2
234.867	21966.77
234.939	21957.27
235.012	21920.4
235.084	21888.1
235.156	21867.66
235.228	21835.07
235.3	21787.79
235.372	21756.6
235.444	21729.75
235.516	21671.19
235.588	21636.63
235.66	21597.73
235.732	21550.83
235.804	21570.69
235.876	21533.1
235.948	21528.32
236.02	21489.62
236.092	21457.38
236.164	21416.07
236.236	21369.41
236.308	21331.53
236.38	21296.54
236.452	21249.16
236.524	21218.36
236.596	21194.31
236.668	21165.49
236.74	21122.11
236.812	21080.86
236.884	21051.94
236.956	21019.69
237.028	20982.68
237.1	20943.4
237.172	20928.46
237.244	20910.68
237.316	20831.39
237.388	20792.4
237.46	20727.05
237.532	20707.86
237.604	20660.88
237.675	20636.54
237.747	20612.83
237.819	20560.83
237.891	20524.68
237.963	20475.77
238.035	20429.07
238.107	20350.18
238.178	20324.39
238.25	20282.56
238.322	20271
238.394	20211.77
238.466	20172.49
238.538	20141.31
238.609	20110.56
238.681	20045.02
238.753	19991.39
238.825	19949.07
238.897	19906.38
238.968	19901.65
239.04	19861.85
239.112	19853.61
239.184	19815.78
239.255	19775.92
239.327	19756.7
239.399	19718.96
239.471	19695.78
239.542	19672.8
239.614	19650.77
239.686	19581.23
239.758	19564.61
239.829	19519.41
239.901	19498.83
239.973	19462.59
240.044	19431.6
240.116	19387.37
240.188	19356.38
240.259	19320.14
240.331	19287.56
240.403	19269.11
240.474	19204.97
240.546	19158.61
240.618	19103.82
240.689	19056.16
240.761	19017.94
240.833	18998.23
240.904	18952.74
240.976	18908.12
241.048	18868.31
241.119	18836.94
241.191	18810.29
241.262	18788.61
241.334	18737.48
241.405	18692.47
241.477	18644.71
241.549	18599.03
241.62	18564.76
241.692	18536.57
241.763	18513.97
241.835	18471.76
241.906	18430.22
241.978	18379.96
242.049	18351.14
242.121	18321.5
242.192	18302.95
242.264	18253.21
242.335	18184.25
242.407	18157.03
242.478	18122.81
242.55	18089.9
242.621	18052.74
242.693	18012.16
242.764	17961.28
242.836	17917.18
242.907	17891.16
242.979	17856.99
243.05	17825.09
243.122	17794.15
243.193	17751.35
243.264	17688.61
243.336	17652.95
243.407	17620.85
243.479	17600.13
243.55	17567.26
243.622	17537.14
243.693	17494.2
243.764	17474.97
243.836	17432.42
243.907	17397.33
243.978	17361.86
244.05	17328.37
244.121	17272.95
244.192	17248.17
244.264	17198.82
244.335	17167.59
244.407	17114.15
244.478	17094.44
244.549	17056.41
244.62	16998.14
244.692	16960.55
244.763	16938.33
244.834	16889.46
244.906	16852.79
244.977	16821.7
245.048	16799.97
245.119	16751.15
245.191	16708.3
245.262	16653.98
245.333	16638.66
245.405	16596.58
245.476	16563.71
245.547	16530.46
245.618	16508.91
245.689	16475.95
245.761	16442.45
245.832	16415.46
245.903	16392.81
245.974	16354.92
246.045	16321.04
246.117	16320.17
246.188	16278.92
246.259	16234.33
246.33	16202.18
246.401	16159.53
246.473	16108.92
246.544	16065.83
246.615	16046.75
246.686	16008.23
246.757	15988.04
246.828	15941.62
246.899	15921.43
246.97	15865.03
247.042	15817.41
247.113	15800.83
247.184	15788.49
247.255	15766.85
247.326	15740.97
247.397	15698.26
247.468	15672.76
247.539	15639.36
247.61	15585.38
247.681	15565.71
247.752	15552.26
247.823	15514.47
247.894	15488.64
247.965	15455.62
248.037	15420.77
248.108	15371.8
248.179	15335.45
248.25	15298.14
248.321	15273.42
248.392	15233.31
248.463	15233.65
248.534	15205.84
248.605	15175.86
248.675	15139.8
248.746	15107.07
248.817	15079.02
248.888	15057.57
248.959	15002.95
249.03	14987.05
249.101	14962.46
249.172	14928.04
249.243	14875.07
249.314	14865.19
249.385	14841.13
249.456	14819.25
249.527	14785.12
249.598	14769.45
249.669	14747.62
249.739	14726.84
249.81	14711.99
249.881	14672.71
249.952	14640.6
250.023	14615.78
250.094	14569.16
250.165	14530.02
250.235	14497.2
250.306	14469.09
250.377	14429.61
250.448	14405.36
250.519	14356.19
250.59	14345.49
250.66	14318.11
250.731	14309.87
250.802	14274.05
250.873	14248.79
250.944	14229.13
251.014	14205.36
251.085	14202.47
251.156	14180.58
251.227	14162.36
251.297	14146.26
251.368	14138.5
251.439	14125.39
251.51	14110.68
251.58	14078.34
251.651	14046.57
251.722	14034.9
251.792	13997.93
251.863	13980.82
251.934	13980.77
252.005	13985.64
252.075	13952.76
252.146	13938.01
252.217	13921.76
252.287	13907.88
252.358	13882.14
252.429	13874.28
252.499	13836.63
252.57	13815.9
252.641	13804.33
252.711	13782.3
252.782	13742.68
252.852	13728.94
252.923	13703.29
252.994	13688.44
253.064	13674.99
253.135	13639.13
253.205	13613.34
253.276	13603.12
253.347	13590.78
253.417	13556.5
253.488	13521.22
253.558	13495.42
253.629	13471.37
253.699	13458.06
253.77	13443.65
253.841	13414.78
253.911	13393.42
253.982	13377.51
254.052	13358.47
254.123	13336.01
254.193	13309.59
254.264	13321.69
254.334	13289.44
254.405	13248.94
254.475	13209.99
254.546	13183.67
254.616	13186.52
254.687	13165.07
254.757	13150.07
254.827	13129.2
254.898	13109.72
254.968	13089.57
255.039	13061.95
255.109	13046.09
255.18	13004.78
255.25	12953.78
255.321	12940.28
255.391	12898.1
255.461	12891.26
255.532	12841.8
255.602	12809.79
255.673	12769.58
255.743	12739.17
255.813	12693.76
255.884	12690.67
255.954	12684.02
256.024	12685.76
256.095	12664.45
256.165	12633.45
256.235	12612.39
256.306	12581.78
256.376	12574.06
256.446	12560.23
256.517	12547.45
256.587	12539.65
256.657	12530.05
256.728	12517.13
256.798	12497.76
256.868	12480.98
256.938	12459.39
257.009	12453.17
257.079	12448.49
257.149	12457.55
257.219	12412.1
257.29	12397.88
257.36	12357.53
257.43	12341.58
257.5	12300.51
257.571	12274.38
257.641	12255.68
257.711	12227.14
257.781	12211.77
257.852	12199.52
257.922	12158.36
257.992	12142.59
258.062	12116.71
258.132	12105.09
258.202	12088.03
258.273	12071.35
258.343	12072.07
258.413	12045.37
258.483	12024.31
258.553	11989.65
258.623	11960.68
258.693	11954.99
258.764	11962.8
258.834	11961.74
258.904	11940.87
258.974	11917.49
259.044	11891.03
259.114	11884.04
259.184	11864.86
259.254	11849.63
259.324	11807.4
259.394	11800.61
259.464	11793.62
259.535	11776.41
259.605	11748.02
259.675	11726.09
259.745	11712.16
259.815	11678.47
259.885	11652.4
259.955	11663.43
260.025	11641.94
260.095	11620.3
260.165	11597.74
260.235	11586.27
260.305	11557.5
260.375	11530.17
260.445	11532.48
260.515	11542.31
260.585	11532.19
260.655	11515.32
260.725	11508.96
260.795	11501.88
260.865	11505.01
260.934	11473.44
261.004	11462.11
261.074	11449.05
261.144	11449.63
261.214	11446.35
261.284	11430.59
261.354	11423.17
261.424	11391.55
261.494	11395.65
261.564	11381.87
261.634	11374.54
261.703	11337.43
261.773	11330.54
261.843	11324.13
261.913	11308.18
261.983	11269.86
262.053	11259.64
262.123	11240.95
262.192	11206.25
262.262	11194.3
262.332	11157.04
262.402	11148.42
262.472	11130.49
262.541	11090.64
262.611	11082.59
262.681	11053.24
262.751	11046.88
262.821	11033.58
262.89	11002.54
262.96	10987.07
263.03	10993.72
263.1	10981.34
263.169	10970.11
263.239	10958.25
263.309	10955.6
263.379	10939.22
263.448	10922.21
263.518	10909.78
263.588	10891.27
263.657	10901.83
263.727	10899.18
263.797	10892.72
263.867	10879.8
263.936	10847.95
264.006	10851.81
264.076	10830.12
264.145	10804.97
264.215	10779.24
264.285	10773.84
264.354	10742.14
264.424	10718.19
264.494	10682.92
264.563	10664.65
264.633	10667.16
264.702	10659.88
264.772	10625.62
264.842	10608.23
264.911	10599.65
264.981	10569.63
265.05	10564.77
265.12	10542.36
265.19	10537.3
265.259	10531.71
265.329	10525.4
265.398	10516.48
265.468	10524.58
265.537	10510.99
265.607	10507.72
265.676	10507.14
265.746	10490.32
265.815	10491.86
265.885	10469.37
265.955	10447.45
266.024	10426.2
266.094	10392.28
266.163	10389.73
266.232	10391.08
266.302	10374.94
266.371	10365.11
266.441	10354.37
266.51	10348.15
266.58	10326.81
266.649	10295.49
266.719	10289.76
266.788	10278.67
266.858	10280.22
266.927	10247.45
266.996	10227.41
267.066	10217.44
267.135	10186.46
267.205	10186.42
267.274	10176.4
267.343	10183.43
267.413	10173.8
267.482	10181.17
267.552	10183.67
267.621	10155.58
267.69	10122.34
267.76	10116.81
267.829	10107.6
267.898	10093.01
267.968	10068.39
268.037	10067.14
268.106	10060.83
268.176	10036.26
268.245	10022.14
268.314	10010.97
268.384	10012.89
268.453	10010.82
268.522	10002.97
268.592	10007.79
268.661	9991.22
268.73	9982.02
268.799	9962.85
268.869	9974.41
268.938	9938.95
269.007	9916.89
269.076	9903.55
269.146	9904.37
269.215	9895.75
269.284	9908.66
269.353	9894.11
269.422	9886.41
269.492	9870.32
269.561	9827.98
269.63	9822.88
269.699	9803.95
269.768	9791.04
269.838	9776.68
269.907	9771.24
269.976	9747.54
270.045	9719.03
270.114	9709.59
270.183	9694.32
270.253	9688.02
270.322	9652.95
270.391	9650.11
270.46	9655.31
270.529	9655.65
270.598	9657.72
270.667	9645.59
270.736	9611.77
270.806	9607.58
270.875	9605.99
270.944	9598.48
271.013	9620.87
271.082	9610.04
271.151	9603.68
271.22	9575.89
271.289	9562.7
271.358	9540.93
271.427	9536.5
271.496	9523.4
271.565	9507.85
271.634	9496.1
271.703	9526.15
271.772	9529.81
271.841	9512.24
271.91	9486.38
271.979	9474.29
272.048	9449.15
272.117	9446.21
272.186	9432.58
272.255	9431.38
272.324	9427.43
272.393	9419.39
272.462	9403.26
272.531	9394.97
272.6	9388.23
272.669	9386.98
272.738	9379.32
272.807	9381.2
272.876	9361.46
272.945	9392.28
273.013	9392.86
273.082	9397.91
273.151	9348.21
273.22	9341.13
273.289	9337.09
273.358	9355.1
273.427	9346.48
273.496	9345.32
273.564	9346.77
273.633	9348.26
273.702	9328.95
273.771	9322.26
273.84	9319.13
273.909	9318.26
273.977	9311.86
274.046	9299.96
274.115	9312.29
274.184	9289.95
274.253	9282.73
274.322	9288.6
274.39	9254.27
274.459	9237.51
274.528	9208.34
274.597	9192.5
274.665	9192.31
274.734	9200.11
274.803	9184.31
274.872	9175.74
274.94	9160.86
275.009	9212.7
275.078	9200.76
275.147	9196.23
275.215	9186.6
275.284	9189.15
275.353	9176.15
275.421	9156.61
275.49	9170.19
275.559	9158.58
275.627	9159.01
275.696	9150.01
275.765	9147.12
275.833	9138.65
275.902	9141.3
275.971	9160.17
276.039	9182.6
276.108	9182.99
276.177	9179.96
276.245	9170.47
276.314	9169.27
276.383	9171.1
276.451	9102.17
276.52	9099.91
276.588	9116.57
276.657	9124.94
276.725	9115.94
276.794	9117.72
276.863	9132.02
276.931	9116.18
277	9121.67
277.068	9127.93
277.137	9145.12
277.205	9146.08
277.274	9167.79
277.342	9179.3
277.411	9151.76
277.48	9138.86
277.548	9126.1
277.617	9125.33
277.685	9114.93
277.754	9109.64
277.822	9103.76
277.89	9121.24
277.959	9116.72
278.027	9092.74
278.096	9077.77
278.164	9098.47
278.233	9087.21
278.301	9069.54
278.37	9069.64
278.438	9050.86
278.507	9056.54
278.575	9032.81
278.643	9028.86
278.712	9001.66
278.78	8983.7
278.849	9000.93
278.917	9005.46
278.985	9001.08
279.054	9002.38
279.122	9016.53
279.191	9016.24
279.259	9012.15
279.327	8985.57
279.396	9002.62
279.464	9001.65
279.532	9011.04
279.601	9010.8
279.669	9013.11
279.737	9025.77
279.806	9024.57
279.874	9038.96
279.942	9032.27
280.011	9029.43
280.079	9034.97
280.147	9058.07
280.215	9058.03
280.284	9050.03
280.352	9043.44
280.42	9051.82
280.488	9041.27
280.557	9036.51
280.625	9037.13
280.693	9039.06
280.761	9045.84
280.83	9022.79
280.898	9033.18
280.966	9009.16
281.034	8972.71
281.102	8953.75
281.171	8950.09
281.239	8963.67
281.307	8953.9
281.375	8939.07
281.443	8960.5
281.512	8953.71
281.58	8963.43
281.648	8954.48
281.716	8954.14
281.784	8951.35
281.852	8943.5
281.92	8943.99
281.989	8955.06
282.057	8941.1
282.125	8989.4
282.193	8979.29
282.261	8985.5
282.329	8979.38
282.397	8985.98
282.465	8991.56
282.533	9013.75
282.601	8997.19
282.67	8966.04
282.738	8955.07
282.806	8969.8
282.874	8951.12
282.942	8960.84
283.01	8949.33
283.078	8956.17
283.146	8952.94
283.214	8964.84
283.282	8974.75
283.35	8987.7
283.418	8978.17
283.486	8985.01
283.554	8935.55
283.622	8942.63
283.69	8942.68
283.758	8940.61
283.826	8947.06
283.894	8953.37
283.962	8971.57
284.03	8991.59
284.098	8995.63
284.165	8998.43
284.233	9002.23
284.301	9001.22
284.369	8989.66
284.437	8976.91
284.505	8972.04
284.573	8991.88
284.641	8973.49
284.709	8980.57
284.777	8958.61
284.845	8965.5
284.912	8969.59
284.98	8976.86
285.048	8973.3
285.116	8979.89
285.184	8991.35
285.252	8991.06
285.319	8975.13
285.387	8959.77
285.455	8943.45
285.523	8949.8
285.591	8945.18
285.659	8942.29
285.726	8951.92
285.794	8931.71
285.862	8931.03
285.93	8931.66
285.997	8924.44
286.065	8921.79
286.133	8904.5
286.201	8903.06
286.269	8885.54
286.336	8880.48
286.404	8869.89
286.472	8877.55
286.539	8850.55
286.607	8832.73
286.675	8835.29
286.743	8849.53
286.81	8844.62
286.878	8859.35
286.946	8853
287.013	8848.72
287.081	8848.28
287.149	8832.83
287.216	8861.86
287.284	8857.14
287.352	8857.33
287.419	8853
287.487	8870.67
287.555	8876.39
287.622	8881.21
287.69	8887.85
287.758	8897.24
287.825	8899.74
287.893	8882.55
287.96	8888.96
288.028	8903.88
288.096	8898.63
288.163	8901.37
288.231	8889.34
288.298	8884.62
288.366	8897.19
288.433	8895.31
288.501	8886.93
288.569	8894.68
288.636	8882.41
288.704	8894.92
288.771	8899.16
288.839	8887.17
288.906	8879.95
288.974	8892.9
289.041	8882.94
289.109	8874.37
289.176	8882.65
289.244	8884.82
289.311	8902.58
289.379	8917.55
289.446	8913.36
289.514	8918.13
289.581	8911.49
289.649	8918.51
289.716	8924.15
289.783	8921.35
289.851	8940.03
289.918	8941.14
289.986	8949.66
290.053	8958.8
290.121	8956.3
290.188	8951.05
290.255	8984.32
290.323	8976.18
290.39	8963.62
290.458	8973.39
290.525	8986.68
290.592	8980.51
290.66	8986.43
290.727	8981.14
290.794	8992.6
290.862	8996.4
290.929	8995.24
290.996	8996.98
291.064	9003.57
291.131	9012.24
291.198	9018.21
291.266	9021.14
291.333	9025.19
291.4	9033.32
291.468	9049.45
291.535	9044.78
291.602	9054.22
291.669	9041.22
291.737	9049.21
291.804	9053.88
291.871	9070.06
291.938	9078.43
292.006	9113.44
292.073	9125.62
292.14	9139.06
292.207	9132.46
292.275	9133.18
292.342	9140.64
292.409	9171.32
292.476	9198.04
292.543	9193.22
292.611	9196.4
292.678	9214.51
292.745	9234
292.812	9233.43
292.879	9233.96
292.946	9245.08
293.014	9264.05
293.081	9270.31
293.148	9286.44
293.215	9295.1
293.282	9291.54
293.349	9300.35
293.416	9271.6
293.484	9284.94
293.551	9291.83
293.618	9312.34
293.685	9338.29
293.752	9330.35
293.819	9320.72
293.886	9303.48
293.953	9310.12
294.02	9319.99
294.087	9322.11
294.154	9317.34
294.221	9339.79
294.288	9334.68
294.356	9346.53
294.423	9347.15
294.49	9338.97
294.557	9349.61
294.624	9343.54
294.691	9370.12
294.758	9371.23
294.825	9382.84
294.892	9373.25
294.959	9369.45
295.026	9372.68
295.093	9365.16
295.16	9368.97
295.226	9371.95
295.293	9398.34
295.36	9401.95
295.427	9416.35
295.494	9431.43
295.561	9442.79
295.628	9469.09
295.695	9489.17
295.762	9496.16
295.829	9508.15
295.896	9530.73
295.963	9539.54
296.03	9558.18
296.096	9554.57
296.163	9563.43
296.23	9578.12
296.297	9591.41
296.364	9592.51
296.431	9604.84
296.498	9601.18
296.564	9627.43
296.631	9629.74
296.698	9619.19
296.765	9639.37
296.832	9622.66
296.899	9605.08
296.965	9623.82
297.032	9597.95
297.099	9606.67
297.166	9611.48
297.233	9607.24
297.299	9599.59
297.366	9603.73
297.433	9598.58
297.5	9610.91
297.566	9621.16
297.633	9619.62
297.7	9622.85
297.767	9627.04
297.833	9628.44
297.9	9630.94
297.967	9622.71
298.033	9642.79
298.1	9666.15
298.167	9657.05
298.234	9665.33
298.3	9684.69
298.367	9675.35
298.434	9685.03
298.5	9676.74
298.567	9677.85
298.634	9673.18
298.7	9693.17
298.767	9688.83
298.834	9707.04
298.9	9702.17
298.967	9687.34
299.033	9702.94
299.1	9714.31
299.167	9720.86
299.233	9722.11
299.3	9734.68
299.366	9751.63
299.433	9768.06
299.5	9750.48
299.566	9757.42
299.633	9782.41
299.699	9791.95
299.766	9796.81
299.832	9799.03
299.899	9808.28
299.965	9825.38
300.032	9824.9
300.099	9835.78
300.165	9845.9
300.232	9837.47
300.298	9837.81
300.365	9859.72
300.431	9862.37
300.498	9860.06
300.564	9876.67
300.631	9882.79
300.697	9905.19
300.763	9903.41
300.83	9892.67
300.896	9904.8
300.963	9910
301.029	9914
301.096	9913.14
301.162	9920.65
301.229	9914.53
301.295	9909.23
301.361	9907.5
301.428	9918.43
301.494	9903.5
301.561	9899.6
301.627	9910.44
301.693	9911.01
301.76	9911.06
301.826	9900.99
301.892	9907.83
301.959	9916.75
302.025	9910.48
302.092	9903.16
302.158	9911.11
302.224	9917.57
302.291	9907.4
302.357	9909.04
302.423	9902.68
302.49	9897.53
302.556	9912.12
302.622	9914.82
302.688	9925.42
302.755	9939.58
302.821	9940.01
302.887	9949.6
302.954	9954.22
303.02	9962.51
303.086	9972.38
303.152	9965.78
303.219	9962.32
303.285	9974.41
303.351	9976.67
303.417	9985.73
303.483	9973.97
303.55	9964.87
303.616	9962.51
303.682	9960.54
303.748	9957.79
303.815	9971.04
303.881	9983.08
303.947	9966.37
304.013	9967.91
304.079	9957.98
304.145	9937.32
304.212	9938.19
304.278	9926.96
304.344	9924.07
304.41	9908.37
304.476	9895.56
304.542	9895.7
304.608	9902.4
304.674	9880.34
304.741	9874.07
304.807	9871.47
304.873	9877.2
304.939	9897.53
305.005	9878.12
305.071	9878.99
305.137	9873.93
305.203	9845.07
305.269	9834.52
305.335	9847.15
305.401	9854.27
305.467	9853.99
305.533	9862.85
305.599	9870.56
305.666	9881.25
305.732	9877.88
305.798	9893
305.864	9921.76
305.93	9920.22
305.996	9917.42
306.062	9917.38
306.128	9916.75
306.194	9908.13
306.259	9908.32
306.325	9895.12
306.391	9908.37
306.457	9923.59
306.523	9928.69
306.589	9957.88
306.655	9952.44
306.721	9936.88
306.787	9910.44
306.853	9928.36
306.919	9906.11
306.985	9898.59
307.051	9890.02
307.117	9888.43
307.183	9883.18
307.248	9855.29
307.314	9864.87
307.38	9870.22
307.446	9880.48
307.512	9863.53
307.578	9863.77
307.644	9854.81
307.709	9861.36
307.775	9848.79
307.841	9837.85
307.907	9832.65
307.973	9806.49
308.039	9812.27
308.104	9816.37
308.17	9823.79
308.236	9799.03
308.302	9810.01
308.368	9802.21
308.433	9807.12
308.499	9805.34
308.565	9790.6
308.631	9790.79
308.696	9762.18
308.762	9750.28
308.828	9749.66
308.894	9733.96
308.959	9710.5
309.025	9701.98
309.091	9690.08
309.156	9687.34
309.222	9689.17
309.288	9682.86
309.354	9662.87
309.419	9651.51
309.485	9633.35
309.551	9635.18
309.616	9625.74
309.682	9617.17
309.748	9607.78
309.813	9600.41
309.879	9582.25
309.945	9571.85
310.01	9569.06
310.076	9580.08
310.141	9571.56
310.207	9550.17
310.273	9549.21
310.338	9560
310.404	9546.27
310.469	9534.52
310.535	9528.84
310.601	9509.48
310.666	9514.73
310.732	9528.69
310.797	9520.84
310.863	9509.87
310.928	9506.25
310.994	9509.19
311.059	9506.83
311.125	9508.42
311.191	9518.49
311.256	9514.97
311.322	9518.73
311.387	9497.35
311.453	9807.35
311.518	9782.99
311.584	9782.7
311.649	9796.09
311.715	9785.2
311.78	9784.77
311.846	9774.37
311.911	9779.62
311.976	9775.81
312.042	9758.53
312.107	9743.65
312.173	9733.73
312.238	9730.6
312.304	9722.02
312.369	9704.3
312.434	9694.33
312.5	9687.21
312.565	9654.36
312.631	9657.49
312.696	9649.21
312.761	9649.36
312.827	9324.42
312.892	9358.23
312.958	9357.7
313.023	9348.64
313.088	9348.26
313.154	9339.35
313.219	9328.85
313.284	9312.77
313.35	9312.58
313.415	9303.43
313.48	9297.27
313.546	9298.42
313.611	9311.66
313.676	9306.37
313.741	9304.92
313.807	9312.77
313.872	9314.6
313.937	9320.04
314.003	9327.6
314.068	9323.27
314.133	9323.99
314.198	9315.76
314.264	9296.49
314.329	9284.02
314.394	9281.47
314.459	9273.19
314.525	9293.56
314.59	9291
314.655	9283.83
314.72	9292.21
314.785	9296.11
314.851	9291.68
314.916	9273.58
314.981	9259.95
315.046	9250.66
315.111	9238.04
315.176	9223.69
315.242	9223.21
315.307	9218.45
315.372	9196.63
315.437	9188.35
315.502	9184.93
315.567	9192.88
315.632	9178.1
315.698	9178.58
315.763	9174.97
315.828	9164.76
315.893	9154.7
315.958	9149.4
316.023	9139.87
316.088	9111.66
316.153	9086.91
316.218	9077.62
316.283	9060.49
316.348	9037.76
316.413	9032.85
316.479	9019.76
316.544	8986.98
316.609	8960.98
316.674	8927.14
316.739	8892.97
316.804	8863.47
316.869	8830.21
316.934	8791.94
316.999	8762.87
317.064	8709.92
317.129	8665.35
317.194	8630.94
317.259	8583.44
317.324	8541.48
317.389	8493.84
317.454	8460.82
317.518	8425.08
317.583	8404.52
317.648	8378.01
317.713	8343.32
317.778	8279.66
317.843	8251.52
317.908	8216.54
317.973	8172.95
318.038	8144.67
318.103	8110.08
318.168	8083.91
318.233	8053.08
318.297	8005.17
318.362	7965.87
318.427	7930.33
318.492	7899.16
318.557	7852.67
318.622	7826.93
318.687	7800.15
318.751	7759.67
318.816	7723.94
318.881	7695.86
318.946	7632.38
319.011	7591.51
319.075	7548.1
319.14	7512.29
319.205	7470.8
319.27	7429.32
319.335	7384.62
319.399	7337.51
319.464	7312.13
319.529	7254.03
319.594	7212.4
319.658	7184.24
319.723	7139.17
319.788	7108.37
319.853	7055.7
319.917	7026.73
319.982	6973.49
320.047	6933.32
320.112	6909.01
320.176	6857.37
320.241	6816.35
320.306	6791.08
320.37	6751.31
320.435	6719.56
320.5	6699.68
320.564	6655.83
320.629	6616.61
320.694	6586.16
320.758	6550.15
320.823	6500.89
320.888	6470.84
320.952	6419.47
321.017	6376.55
321.082	6337.82
321.146	6306.09
321.211	6274.27
321.275	6233.19
321.34	6184.1
321.405	6136.89
321.469	6087.13
321.534	6046.11
321.598	5998.23
321.663	5968.72
321.727	5932.4
321.792	5883.95
321.857	5832.28
321.921	5793.34
321.986	5750.71
322.05	5692.65
322.115	5651.02
322.179	5607.54
322.244	5550.98
322.308	5516.66
322.373	5466.9
322.437	5430.71
322.502	5400.26
322.566	5353.19
322.631	5319.79
322.695	5285.24
322.76	5242.03
322.824	5212.18
322.889	5167.44
322.953	5118.69
323.018	5042.67
323.082	4979.89
323.146	4928.52
323.211	4873.17
323.275	4831.46
323.34	4785.03
323.404	4747.74
323.468	4706.52
323.533	4663.02
323.597	4619.2
323.662	4568.95
323.726	4534.3
323.79	4484.97
323.855	4414.9
323.919	4363.91
323.983	4315.68
324.048	4245.36
324.112	4385
324.177	4248.38
324.241	4029.77
324.305	3817.59
324.37	3609.48
324.434	3405.92
324.498	3360.15
324.562	3310.24
324.627	3242.57
324.691	3185.79
324.755	3117.01
324.82	3031.23
324.884	2948.4
324.948	2872.21
325.012	2769.18
325.077	2633.1
