Data from 20250703_urea_0.1M_MAYP1162681_18-11-05-684.txt Node
Date: Thu Jul 03 18:11:05 BST 2025
User: adleo
Spectrometer: MAYP116268
Trigger mode: 0
Integration Time (sec): 1.000000E0
Scans to average: 1
Electric dark correction enabled: true
Nonlinearity correction enabled: true
Boxcar width: 10
XAxis mode: Wavelengths
Number of Pixels in Spectrum: 2068
>>>>>Begin Spectral Data<<<<<
179.565	1351.88
179.642	1416.03
179.718	1464.24
179.795	1512.06
179.871	1544.51
179.948	1564.42
180.024	1586.74
180.101	1612.69
180.177	1629.86
180.254	1658.5
180.33	1684.12
180.407	1748.81
180.483	1853.33
180.56	1954.26
180.636	2048.94
180.712	2037.52
180.789	2049.22
180.865	2061.39
180.942	2070.38
181.018	2082.84
181.095	2099.26
181.171	2101.78
181.248	2101.11
181.324	2118.91
181.4	2125
181.477	2140.98
181.553	2156.63
181.63	2179.61
181.706	2194.6
181.782	2203.35
181.859	2200.35
181.935	2202.39
182.011	2198.45
182.088	2218.43
182.164	2238.66
182.24	2252.65
182.317	2263.49
182.393	2259.4
182.469	2272.72
182.546	2288.24
182.622	2291.57
182.698	2286.33
182.775	2300.28
182.851	2313.93
182.927	2305.89
183.003	2300.66
183.08	2293.66
183.156	2302.08
183.232	2299.23
183.308	2289.09
183.385	2297.09
183.461	2316.17
183.537	2321.22
183.613	2337.02
183.69	2328.07
183.766	2318.12
183.842	2326.35
183.918	2330.45
183.995	2345.44
184.071	2353.1
184.147	2347.82
184.223	2336.45
184.299	2349.25
184.375	2336.78
184.452	2343.4
184.528	2399.07
184.604	2408.11
184.68	2418.77
184.756	2427.24
184.832	2432.19
184.908	2440.85
184.985	2440.95
185.061	2422.48
185.137	2433.15
185.213	2421.06
185.289	2420.3
185.365	2412.11
185.441	2411.78
185.517	2425.35
185.593	2422.4
185.669	2417.11
185.745	2428.49
185.822	2444.15
185.898	2436.19
185.974	2445.47
186.05	2438.95
186.126	2399.47
186.202	2395.48
186.278	2394.38
186.354	2384.33
186.43	2392.1
186.506	2386.72
186.582	2387.43
186.658	2394.67
186.734	2370.11
186.81	2372.54
186.886	2377.53
186.962	2389.15
187.038	2385
187.114	2377.53
187.19	2385.33
187.266	2375.72
187.341	2373.72
187.417	2365.25
187.493	2363.63
187.569	2369.15
187.645	2361.73
187.721	2349.4
187.797	2360.77
187.873	2365.34
187.949	2360.87
188.025	2353.63
188.101	2355.44
188.176	2359.87
188.252	2356.15
188.328	2363.58
188.404	2361.39
188.48	2357.91
188.556	2352.1
188.632	2353.87
188.707	2353.44
188.783	2349.77
188.859	2346.58
188.935	2334.35
189.011	2343.06
189.086	2336.25
189.162	2326.02
189.238	2323.83
189.314	2321.12
189.39	2312.03
189.465	2302.17
189.541	2317.88
189.617	2298.89
189.693	2296.56
189.768	2300.89
189.844	2326.61
189.92	2319.14
189.996	2332.33
190.071	2340.27
190.147	2338.8
190.223	2346.56
190.298	2338.94
190.374	2324.95
190.45	2336.47
190.526	2347.03
190.601	2342.42
190.677	2345.37
190.753	2372.75
190.828	2379.27
190.904	2394.93
190.98	2409.5
191.055	2424.74
191.131	2415.83
191.207	2441.96
191.282	2451.72
191.358	2440.92
191.433	2424.96
191.509	2439.14
191.585	2435.33
191.66	2438.76
191.736	2445.37
191.811	2434.76
191.887	2454.38
191.963	2481.42
192.038	2485.61
192.114	2485.99
192.189	2492.89
192.265	2488.9
192.34	2464.65
192.416	2464.18
192.491	2459.08
192.567	2463.89
192.642	2463.32
192.718	2464.32
192.793	2450.27
192.869	2446.28
192.944	2447.37
193.02	2459.66
193.095	2467.28
193.171	2471.85
193.246	2471.18
193.322	2471.04
193.397	2470.7
193.473	2453.75
193.548	2434.7
193.624	2442.46
193.699	2442.08
193.775	2457.28
193.85	2458.32
193.925	2473.42
194.001	2472.23
194.076	2467.09
194.152	2455.75
194.227	2447.7
194.302	2436.61
194.378	2443.9
194.453	2441.09
194.529	2454.47
194.604	2436.94
194.679	2430.09
194.755	2410
194.83	2420.29
194.905	2419.62
194.981	2430.43
195.056	2426.24
195.131	2432.81
195.207	2430.48
195.282	2422.29
195.357	2399.81
195.433	2415.95
195.508	2400.33
195.583	2408.33
195.659	2422.14
195.734	2427.95
195.809	2429.57
195.884	2440.56
195.96	2438.75
196.035	2455.51
196.11	2452.61
196.185	2465.41
196.261	2467.18
196.336	2500.84
196.411	2486.27
196.486	2489.36
196.561	2483.98
196.637	2489.64
196.712	2509.56
196.787	2512.03
196.862	2528.6
196.937	2542.51
197.013	2550.65
197.088	2562.94
197.163	2589.95
197.238	2609.26
197.313	2609.21
197.388	2623.74
197.464	2655.75
197.539	2666.52
197.614	2660.56
197.689	2675.67
197.764	2694.92
197.839	2716.73
197.914	2707.68
197.989	2732.22
198.065	2747.7
198.14	2801.1
198.215	2829.26
198.29	2837.84
198.365	2851.46
198.44	2863.66
198.515	2893.26
198.59	2911.24
198.665	2940.41
198.74	2945.32
198.815	2944.13
198.89	2970.2
198.965	3004.2
199.04	3001.15
199.115	3019.36
199.19	3063.46
199.265	3066.27
199.34	3077
199.415	3116.22
199.49	3142.91
199.565	3155.6
199.64	3184.83
199.715	3185.6
199.79	3193.75
199.865	3200.81
199.94	3202.05
200.015	3235.4
200.09	3243.42
200.165	3249.71
200.24	3256.15
200.315	3300.8
200.39	3316.83
200.464	3323.03
200.539	3324.46
200.614	3340.44
200.689	3366.74
200.764	3375.28
200.839	3396.84
200.914	3401.56
200.989	3387.53
201.063	3402.46
201.138	3384.49
201.213	3384.63
201.288	3361.96
201.363	3370.07
201.438	3373.65
201.512	3390.06
201.587	3370.3
201.662	3370.35
201.737	3385.05
201.812	3396.93
201.886	3361.26
201.961	3375.82
202.036	3363.56
202.111	3357.69
202.186	3328.03
202.26	3311.13
202.335	3284.84
202.41	3278.69
202.485	3261.09
202.559	3241.91
202.634	3214.05
202.709	3225.97
202.784	3206.55
202.858	3209.18
202.933	3192.15
203.008	3187.47
203.082	3176.02
203.157	3179.74
203.232	3141.89
203.306	3125.38
203.381	3093.75
203.456	3079.15
203.53	3064.87
203.605	3054.34
203.68	3042.6
203.754	3047.8
203.829	3044.17
203.904	3038.78
203.978	3041.74
204.053	3064.59
204.127	3069.41
204.202	3090.35
204.277	3092.73
204.351	3110.24
204.426	3130.38
204.5	3150.51
204.575	3142.92
204.65	3182.3
204.724	3211.05
204.799	3255.63
204.873	3287.19
204.948	3325.74
205.022	3356.14
205.097	3388.53
205.171	3449.95
205.246	3510.19
205.32	3561.73
205.395	3613.89
205.469	3663.62
205.544	3727.7
205.618	3768.27
205.693	3849.79
205.767	3905.79
205.842	4004.56
205.916	4076.85
205.991	4141.64
206.065	4222.89
206.14	4326
206.214	4404.25
206.289	4481.98
206.363	4591.24
206.438	4691.79
206.512	4801.77
206.586	4923.62
206.661	5035.11
206.735	5122.42
206.81	5229.55
206.884	5360.74
206.958	5463.34
207.033	5601.41
207.107	5738.72
207.181	5904.02
207.256	6021.99
207.33	6165.34
207.405	6306.37
207.479	6451.48
207.553	6590.24
207.628	6708.47
207.702	6859.22
207.776	6997.9
207.851	7143.61
207.925	7298.86
207.999	7441.63
208.073	7583.63
208.148	7733.07
208.222	7869.88
208.296	8054.81
208.371	8221.42
208.445	8380.71
208.519	8566.51
208.593	8741.39
208.668	8891.58
208.742	9053.95
208.816	9215.92
208.89	9394.89
208.965	9557
209.039	9734.42
209.113	9915.64
209.187	10102.48
209.261	10256.56
209.336	10435.37
209.41	10617.48
209.484	10775.46
209.558	10956.92
209.632	11140.75
209.707	11314.61
209.781	11504.38
209.855	11676.72
209.929	11867.29
210.003	12036.27
210.077	12200.44
210.151	12406.79
210.226	12592.07
210.3	12774.67
210.374	12952.63
210.448	13110.93
210.522	13270.82
210.596	13426.91
210.67	13594.71
210.744	13801.7
210.818	13987.04
210.892	14172.05
210.966	14326.89
211.041	14499.65
211.115	14651.25
211.189	14825.51
211.263	14985.21
211.337	15137.72
211.411	15305.46
211.485	15438.4
211.559	15603.2
211.633	15738.94
211.707	15841.56
211.781	15999.98
211.855	16102.74
211.929	16235.77
212.003	16363.98
212.077	16519.03
212.151	16673.4
212.225	16809.99
212.299	16926.28
212.373	17051.64
212.447	17165.52
212.52	17322.01
212.594	17455.5
212.668	17589.53
212.742	17693.14
212.816	17812.47
212.89	17926.78
212.964	18042.25
213.038	18164.7
213.112	18286.48
213.186	18428.93
213.26	18528.3
213.333	18587.29
213.407	18708.82
213.481	18820.29
213.555	18935.13
213.629	19029.58
213.703	19122.44
213.777	19239.16
213.85	19335.44
213.924	19472.4
213.998	19581.46
214.072	19682.23
214.146	19763.72
214.219	19862.8
214.293	19955.71
214.367	20059.37
214.441	20164.57
214.515	20245.73
214.588	20309.78
214.662	20368.04
214.736	20432.04
214.81	20529.34
214.883	20629
214.957	20701.58
215.031	20776.33
215.105	20830.59
215.178	20882.11
215.252	20943.47
215.326	20987.23
215.4	21041.16
215.473	21067.72
215.547	21120.06
215.621	21173.13
215.694	21254.54
215.768	21285.19
215.842	21345.82
215.915	21393.97
215.989	21435.62
216.063	21496.5
216.136	21573.52
216.21	21639.37
216.284	21709.93
216.357	21774.81
216.431	21834.3
216.504	21899.37
216.578	21988.36
216.652	22064.76
216.725	22142.03
216.799	22216.99
216.873	22268.33
216.946	22325.21
217.02	22376.99
217.093	22428.18
217.167	22454.75
217.24	22485.26
217.314	22540.31
217.387	22579.12
217.461	22625.6
217.535	22685.14
217.608	22719.37
217.682	22757.7
217.755	22816.67
217.829	22850.9
217.902	22892.56
217.976	22935.37
218.049	22967.05
218.123	22995.88
218.196	23042.27
218.27	23065.46
218.343	23093.04
218.417	23145.79
218.49	23182.87
218.563	23244.89
218.637	23278.93
218.71	23350.11
218.784	23403.25
218.857	23463.91
218.931	23508.85
219.004	23547.14
219.077	23589.63
219.151	23628.83
219.224	23662.06
219.298	23692.59
219.371	23743.76
219.444	23767.58
219.518	23810.41
219.591	23855.84
219.665	23908.22
219.738	23945.07
219.811	23982.59
219.885	24023.01
219.958	24057.74
220.031	24088.27
220.105	24114.56
220.178	24165.25
220.251	24172.15
220.325	24211.22
220.398	24240.74
220.471	24268.14
220.544	24303.88
220.618	24325.01
220.691	24366.3
220.764	24406.44
220.838	24431.28
220.911	24444.88
220.984	24494.81
221.057	24524.1
221.131	24538.81
221.204	24531.62
221.277	24571.47
221.35	24619.13
221.424	24633.85
221.497	24656.96
221.57	24682.23
221.643	24705.73
221.716	24724.21
221.79	24745.68
221.863	24747.56
221.936	24763.62
222.009	24788.04
222.082	24809.99
222.155	24818.58
222.229	24835.22
222.302	24844.29
222.375	24864.27
222.448	24886.85
222.521	24890.56
222.594	24890.8
222.667	24892.88
222.74	24911.21
222.814	24909.28
222.887	24906.1
222.96	24928.44
223.033	24950
223.106	24957.39
223.179	24978.91
223.252	24975.14
223.325	24971.43
223.398	24979.92
223.471	24982.19
223.544	24978.86
223.617	24982.62
223.69	24983.49
223.763	24976.3
223.837	24978.18
223.91	24979.29
223.983	24962.26
224.056	24945.18
224.129	24942.67
224.202	24963.23
224.275	24955.99
224.348	24936.69
224.42	24923.81
224.493	24890.47
224.566	24874.74
224.639	24881.4
224.712	24861.76
224.785	24855.05
224.858	24861.08
224.931	24845.74
225.004	24828.27
225.077	24821.28
225.15	24777.33
225.223	24772.6
225.296	24781.96
225.369	24749.97
225.442	24723.82
225.514	24719.48
225.587	24710.89
225.66	24703.51
225.733	24684.55
225.806	24678.81
225.879	24667.91
225.952	24643.16
226.025	24652.76
226.097	24654.25
226.17	24638.96
226.243	24599.4
226.316	24591.05
226.389	24574.36
226.461	24566.84
226.534	24556.17
226.607	24535.87
226.68	24558.68
226.753	24553.47
226.825	24523.13
226.898	24530.26
226.971	24524.86
227.044	24516.47
227.117	24506.53
227.189	24499.68
227.262	24492.3
227.335	24487.86
227.407	24479.03
227.48	24469.77
227.553	24455.73
227.626	24431.71
227.698	24407.93
227.771	24399
227.844	24360.85
227.916	24337.6
227.989	24299.44
228.062	24278.65
228.134	24295.05
228.207	24275.18
228.28	24246.04
228.352	24220.72
228.425	24197.32
228.498	24193.03
228.57	24155.56
228.643	24140.65
228.716	24112.38
228.788	24088.94
228.861	24055.42
228.934	24041.33
229.006	24019.73
229.079	23987.56
229.151	23955.14
229.224	23918.2
229.296	23895.73
229.369	23913.09
229.442	23904.94
229.514	23887.72
229.587	23875.57
229.659	23826.47
229.732	23803.32
229.804	23797.14
229.877	23804.43
229.949	23790.25
230.022	23778.19
230.094	23760.73
230.167	23750.02
230.239	23722.58
230.312	23693.36
230.384	23688.1
230.457	23668.09
230.529	23646.58
230.602	23635.2
230.674	23610.7
230.747	23604.24
230.819	23599.75
230.892	23532.29
230.964	23521.63
231.037	23507.41
231.109	23489.18
231.181	23473.5
231.254	23440.23
231.326	23405.46
231.399	23370.74
231.471	23337.75
231.544	23287.84
231.616	23269.57
231.688	23240.06
231.761	23206.01
231.833	23183.26
231.905	23140.63
231.978	23114.98
232.05	23084.55
232.122	23048.29
232.195	23017.72
232.267	22995.59
232.339	22958.18
232.412	22957.89
232.484	22913.14
232.556	22884.16
232.629	22872.59
232.701	22856.34
232.773	22823.65
232.846	22796.03
232.918	22761.55
232.99	22741.98
233.062	22725.97
233.135	22699.94
233.207	22661.27
233.279	22649.12
233.351	22625.83
233.424	22585.19
233.496	22545.71
233.568	22538.04
233.64	22497.89
233.713	22477.35
233.785	22445.97
233.857	22424.22
233.929	22372.45
234.001	22367.68
234.074	22350.13
234.146	22288.61
234.218	22244.6
234.29	22217.99
234.362	22175.96
234.434	22123.75
234.507	22066.05
234.579	22013.65
234.651	21975.42
234.723	21956
234.795	21928.04
234.867	21884.17
234.939	21869.71
235.012	21835.58
235.084	21804.15
235.156	21789.21
235.228	21740.29
235.3	21702.21
235.372	21666.63
235.444	21646.87
235.516	21576.11
235.588	21540.15
235.66	21515.62
235.732	21480.72
235.804	21502.9
235.876	21479.09
235.948	21471.62
236.02	21442.26
236.092	21403.32
236.164	21377.53
236.236	21329.53
236.308	21282.39
236.38	21253.81
236.452	21200.17
236.524	21169.75
236.596	21158.52
236.668	21118.18
236.74	21089.02
236.812	21054.56
236.884	21023.29
236.956	20995.52
237.028	20955.38
237.1	20901.26
237.172	20888.05
237.244	20871.81
237.316	20793.92
237.388	20747.51
237.46	20698.93
237.532	20691.02
237.604	20652.52
237.675	20631.74
237.747	20606.59
237.819	20567.55
237.891	20523.84
237.963	20490.06
238.035	20461.09
238.107	20378.05
238.178	20348.32
238.25	20311.41
238.322	20308.51
238.394	20251.89
238.466	20206.44
238.538	20172.52
238.609	20153.58
238.681	20087.07
238.753	20034.69
238.825	19997.1
238.897	19961.58
238.968	19942.54
239.04	19887.8
239.112	19880.38
239.184	19824.43
239.255	19780.09
239.327	19736.19
239.399	19702.65
239.471	19676.68
239.542	19636.39
239.614	19622.27
239.686	19566.32
239.758	19547.04
239.829	19486.08
239.901	19463.24
239.973	19425.6
240.044	19400.4
240.116	19354.19
240.188	19315.06
240.259	19271.78
240.331	19225.95
240.403	19206.92
240.474	19143.93
240.546	19094.54
240.618	19023.07
240.689	18985.73
240.761	18951.61
240.833	18946.26
240.904	18903.37
240.976	18859.66
241.048	18826.8
241.119	18794.08
241.191	18761.98
241.262	18735.82
241.334	18701.7
241.405	18667.58
241.477	18630.76
241.549	18598.47
241.62	18562.09
241.692	18539.83
241.763	18520.36
241.835	18488.79
241.906	18436.36
241.978	18390.73
242.049	18370.87
242.121	18357.19
242.192	18333.86
242.264	18278.2
242.335	18210.35
242.407	18182.06
242.478	18138.4
242.55	18101.2
242.621	18056.28
242.693	18027.27
242.764	17980.72
242.836	17933.83
242.907	17897.01
242.979	17863.47
243.05	17826.32
243.122	17794.65
243.193	17745.98
243.264	17689.6
243.336	17646.9
243.407	17625.98
243.479	17616.92
243.55	17584.49
243.622	17556.68
243.693	17512.97
243.764	17491.96
243.836	17447.09
243.907	17412.92
243.978	17380.44
244.05	17344.05
244.121	17285.84
244.192	17249.79
244.264	17189.64
244.335	17156.68
244.407	17099.04
244.478	17063.66
244.549	17020.34
244.62	16972.38
244.692	16939.85
244.763	16909.54
244.834	16864.86
244.906	16814.16
244.977	16776.33
245.048	16754.25
245.119	16711.6
245.191	16670.44
245.262	16617.04
245.333	16608.22
245.405	16572.46
245.476	16542.67
245.547	16513.03
245.618	16499.49
245.689	16470.04
245.761	16448.88
245.832	16408.35
245.903	16386.18
245.974	16352.25
246.045	16320.15
246.117	16305.3
246.188	16257.11
246.259	16217.29
246.33	16192.62
246.401	16165.96
246.473	16121.28
246.544	16078.24
246.615	16047.78
246.686	16008.64
246.757	15990.04
246.828	15940.68
246.899	15926.56
246.97	15874.75
247.042	15826.93
247.113	15788.71
247.184	15777.24
247.255	15738.73
247.326	15716.22
247.397	15682.72
247.468	15653.07
247.539	15623.96
247.61	15578.7
247.681	15564.39
247.752	15543.9
247.823	15495.6
247.894	15462.39
247.965	15414.72
248.037	15377.65
248.108	15337.89
248.179	15312.39
248.25	15285.39
248.321	15266.02
248.392	15220.52
248.463	15221.91
248.534	15193.38
248.605	15180.75
248.675	15138.72
248.746	15116.98
248.817	15092.73
248.888	15073.55
248.959	15024.38
249.03	15001.15
249.101	14973.33
249.172	14933.13
249.243	14881.21
249.314	14872.97
249.385	14855.57
249.456	14837.93
249.527	14808.09
249.598	14786.2
249.669	14755.64
249.739	14724.12
249.81	14697.41
249.881	14655.43
249.952	14625.54
250.023	14605.53
250.094	14551.45
250.165	14515.01
250.235	14482.18
250.306	14453.88
250.377	14409.92
250.448	14398.06
250.519	14345.9
250.59	14337.47
250.66	14311.97
250.731	14305.07
250.802	14275.14
250.873	14240.96
250.944	14216.52
251.014	14187.6
251.085	14184.41
251.156	14157.56
251.227	14154.82
251.297	14151.01
251.368	14142.91
251.439	14122.71
251.51	14100.92
251.58	14073.15
251.651	14050.74
251.722	14032.85
251.792	13987.64
251.863	13972.74
251.934	13960.98
252.005	13971.2
252.075	13938.37
252.146	13920.49
252.217	13910.12
252.287	13897.39
252.358	13873.63
252.429	13878.98
252.499	13853.38
252.57	13826.53
252.641	13820.75
252.711	13787.44
252.782	13740
252.852	13731.03
252.923	13708.33
252.994	13683.84
253.064	13673.91
253.135	13639.2
253.205	13616.54
253.276	13621.75
253.347	13612.74
253.417	13582.12
253.488	13549.25
253.558	13520.85
253.629	13499.74
253.699	13482.1
253.77	13468.21
253.841	13440.49
253.911	13414.9
253.982	13389.54
254.052	13374.69
254.123	13349.33
254.193	13326
254.264	13343.6
254.334	13317.18
254.405	13278.91
254.475	13247.81
254.546	13225.16
254.616	13216.86
254.687	13199.36
254.757	13172.47
254.827	13141.9
254.898	13117.9
254.968	13094.32
255.039	13066.07
255.109	13057.06
255.18	13016.62
255.25	12964.6
255.321	12954.62
255.391	12909.21
255.461	12908.54
255.532	12850.45
255.602	12819.31
255.673	12776.21
255.743	12735.96
255.813	12675.61
255.884	12670.84
255.954	12654.74
256.024	12649.87
256.095	12622.44
256.165	12583.59
256.235	12574.62
256.306	12545.94
256.376	12541.36
256.446	12531.33
256.517	12521.93
256.587	12503.52
256.657	12490.79
256.728	12476.86
256.798	12457.05
256.868	12437.96
256.938	12408.89
257.009	12404.22
257.079	12398.58
257.149	12420.32
257.219	12380.98
257.29	12373.46
257.36	12331.77
257.43	12327.43
257.5	12285.06
257.571	12261.78
257.641	12255.17
257.711	12216.66
257.781	12206.44
257.852	12188.56
257.922	12148.64
257.992	12132.21
258.062	12110.03
258.132	12097.64
258.202	12078.51
258.273	12054.7
258.343	12059.13
258.413	12033.01
258.483	12013.53
258.553	11979.6
258.623	11940.17
258.693	11929.81
258.764	11931.01
258.834	11927.97
258.904	11904.93
258.974	11880.93
259.044	11861.6
259.114	11852.45
259.184	11836.4
259.254	11815.24
259.324	11771.13
259.394	11758.46
259.464	11751.47
259.535	11733.73
259.605	11706.98
259.675	11676.81
259.745	11665.82
259.815	11624.61
259.885	11600.03
259.955	11615.07
260.025	11590.83
260.095	11572.17
260.165	11556.6
260.235	11555.11
260.305	11532.22
260.375	11501.03
260.445	11505.27
260.515	11505.56
260.585	11500.07
260.655	11486.19
260.725	11480.5
260.795	11480.21
260.865	11487.78
260.934	11462.76
261.004	11451
261.074	11434.33
261.144	11438.57
261.214	11435.49
261.284	11421.8
261.354	11418.71
261.424	11386.76
261.494	11391.24
261.564	11374.37
261.634	11368.01
261.703	11329.45
261.773	11317.5
261.843	11308.73
261.913	11295.57
261.983	11265.84
262.053	11255.57
262.123	11240.15
262.192	11208.92
262.262	11198.51
262.332	11159.57
262.402	11152.34
262.472	11138.85
262.541	11099.05
262.611	11096.01
262.681	11067.19
262.751	11058.71
262.821	11042.62
262.89	11008.69
262.96	10997.36
263.03	11007.39
263.1	10991.68
263.169	10978.33
263.239	10965.46
263.309	10976.4
263.379	10960.93
263.448	10944.55
263.518	10927.39
263.588	10908.74
263.657	10911.06
263.727	10900.41
263.797	10893.85
263.867	10867.59
263.936	10836.37
264.006	10842.97
264.076	10823.16
264.145	10801.72
264.215	10781.14
264.285	10773.53
264.354	10740.53
264.424	10717.73
264.494	10677.54
264.563	10656.97
264.633	10660.63
264.702	10657.5
264.772	10621.12
264.842	10602.33
264.911	10591.92
264.981	10555.15
265.05	10540.41
265.12	10520.32
265.19	10511.5
265.259	10503.07
265.329	10502.2
265.398	10492.23
265.468	10506.3
265.537	10487.31
265.607	10483.75
265.676	10483.12
265.746	10470.26
265.815	10477.14
265.885	10463.85
265.955	10447.52
266.024	10423.67
266.094	10390.52
266.163	10389.46
266.232	10390.62
266.302	10372.74
266.371	10366.09
266.441	10356.55
266.51	10351.45
266.58	10337.09
266.649	10319.55
266.719	10316.9
266.788	10310.11
266.858	10312.47
266.927	10269.11
266.996	10261.93
267.066	10252.49
267.135	10227.63
267.205	10222.86
267.274	10211.16
267.343	10212.65
267.413	10198.1
267.482	10209.33
267.552	10218.14
267.621	10183.7
267.69	10145.11
267.76	10135.28
267.829	10125.12
267.898	10114.52
267.968	10096.6
268.037	10089.47
268.106	10084.36
268.176	10052.67
268.245	10035.08
268.314	10017.16
268.384	10020.68
268.453	10006.37
268.522	9996.98
268.592	9992.74
268.661	9971.54
268.73	9968.41
268.799	9947.31
268.869	9958.54
268.938	9925.92
269.007	9894.52
269.076	9884.45
269.146	9887
269.215	9882.62
269.284	9886.48
269.353	9868.99
269.422	9849.2
269.492	9833.59
269.561	9789.23
269.63	9790.87
269.699	9770.83
269.768	9761.25
269.838	9753.01
269.907	9746.22
269.976	9717.66
270.045	9685.54
270.114	9682.5
270.183	9661.26
270.253	9652.35
270.322	9619.89
270.391	9614.74
270.46	9623.45
270.529	9625.53
270.598	9627.4
270.667	9615.36
270.736	9584.92
270.806	9585.45
270.875	9595.09
270.944	9585.98
271.013	9607.61
271.082	9597.93
271.151	9594.6
271.22	9567.06
271.289	9554.06
271.358	9539.75
271.427	9544.09
271.496	9534.84
271.565	9516.54
271.634	9508.69
271.703	9533.11
271.772	9536.1
271.841	9523.82
271.91	9495.89
271.979	9483.99
272.048	9457.36
272.117	9452.79
272.186	9442.48
272.255	9443.68
272.324	9437.09
272.393	9434.44
272.462	9418.21
272.531	9409.49
272.6	9395.19
272.669	9398.75
272.738	9388.64
272.807	9388.54
272.876	9360.81
272.945	9397.94
273.013	9402.75
273.082	9409.73
273.151	9365.57
273.22	9366.82
273.289	9357.24
273.358	9374.96
273.427	9362.25
273.496	9365.04
273.564	9363.7
273.633	9369.86
273.702	9344.43
273.771	9328.4
273.84	9319.25
273.909	9323.44
273.977	9323.73
274.046	9316.51
274.115	9328.06
274.184	9304.76
274.253	9300.91
274.322	9314.44
274.39	9274.09
274.459	9258.01
274.528	9233.59
274.597	9230.03
274.665	9215.59
274.734	9223.63
274.803	9207.93
274.872	9201.96
274.94	9185.92
275.009	9247.49
275.078	9232.66
275.147	9230.68
275.215	9224.38
275.284	9227.65
275.353	9210.46
275.421	9177.82
275.49	9194.48
275.559	9179.46
275.627	9178.93
275.696	9163.28
275.765	9159.23
275.833	9157.89
275.902	9156.78
275.971	9161.64
276.039	9172.43
276.108	9177.29
276.177	9175.8
276.245	9163.52
276.314	9159.43
276.383	9166.26
276.451	9092.95
276.52	9095.6
276.588	9108.7
276.657	9121.46
276.725	9114.57
276.794	9115.87
276.863	9130.75
276.931	9102.53
277	9106.48
277.068	9120.68
277.137	9143.74
277.205	9142.97
277.274	9159.82
277.342	9173.35
277.411	9153.52
277.48	9138.07
277.548	9127.28
277.617	9124.25
277.685	9117.03
277.754	9120.64
277.822	9109.08
277.89	9125.55
277.959	9116.98
278.027	9094.6
278.096	9081.36
278.164	9111.07
278.233	9098.4
278.301	9088.54
278.37	9094.02
278.438	9080.69
278.507	9076.88
278.575	9041.64
278.643	9035.1
278.712	9017.72
278.78	8996.72
278.849	9010.25
278.917	9023.34
278.985	9020.41
279.054	9025.42
279.122	9036.58
279.191	9034.13
279.259	9028.69
279.327	9005.87
279.396	9023.01
279.464	9021.27
279.532	9029.65
279.601	9021.99
279.669	9020.26
279.737	9032.39
279.806	9037.49
279.874	9048.95
279.942	9048.66
280.011	9051.5
280.079	9058.1
280.147	9073.5
280.215	9077.6
280.284	9068.6
280.352	9048.47
280.42	9055.26
280.488	9041.25
280.557	9037.16
280.625	9035.86
280.693	9034.8
280.761	9042.79
280.83	9021.9
280.898	9031.91
280.966	9013.66
281.034	8976.5
281.102	8961.09
281.171	8955.75
281.239	8963.6
281.307	8955.03
281.375	8944.44
281.443	8965.09
281.512	8959.7
281.58	8963.07
281.648	8943
281.716	8945.84
281.784	8949.83
281.852	8940.59
281.92	8939.96
281.989	8950.6
282.057	8938.62
282.125	8995.19
282.193	8983.64
282.261	8988.79
282.329	8985.71
282.397	8983.5
282.465	8989.42
282.533	9009.87
282.601	8993.56
282.67	8973.29
282.738	8957.84
282.806	8963.76
282.874	8948.45
282.942	8949.41
283.01	8944.5
283.078	8957.49
283.146	8951.29
283.214	8961.39
283.282	8966.64
283.35	8982.43
283.418	8971.5
283.486	8978.2
283.554	8927.2
283.622	8930.62
283.69	8926.05
283.758	8920.7
283.826	8927.92
283.894	8936.68
283.962	8953.01
284.03	8972.55
284.098	8972.26
284.165	8971.25
284.233	8972.07
284.301	8969.47
284.369	8970.19
284.437	8953.97
284.505	8940.83
284.573	8957.72
284.641	8947.37
284.709	8951.18
284.777	8928.89
284.845	8939
284.912	8946.55
284.98	8953.58
285.048	8945.5
285.116	8948.96
285.184	8959.26
285.252	8962.25
285.319	8940.97
285.387	8927.11
285.455	8910.98
285.523	8912.42
285.591	8914.4
285.659	8923.83
285.726	8932.06
285.794	8909.73
285.862	8909.83
285.93	8917.29
285.997	8912.28
286.065	8903.81
286.133	8894.08
286.201	8890.52
286.269	8880.51
286.336	8865.97
286.404	8852.44
286.472	8861.54
286.539	8838.34
286.607	8827.95
286.675	8829.73
286.743	8849.94
286.81	8852.3
286.878	8867.27
286.946	8859.19
287.013	8859.86
287.081	8855
287.149	8846.96
287.216	8867.99
287.284	8860.97
287.352	8863.47
287.419	8858.08
287.487	8876.85
287.555	8878.15
287.622	8882.15
287.69	8882.24
287.758	8894.04
287.825	8894.08
287.893	8877.19
287.96	8888.26
288.028	8901.45
288.096	8897.4
288.163	8893.65
288.231	8877.47
288.298	8874.78
288.366	8891.34
288.433	8883.49
288.501	8870.26
288.569	8867.46
288.636	8861.25
288.704	8880.27
288.771	8885.27
288.839	8876.08
288.906	8867.61
288.974	8879.79
289.041	8874.93
289.109	8865.44
289.176	8873.29
289.244	8882.39
289.311	8898.47
289.379	8907.51
289.446	8907.37
289.514	8906.41
289.581	8905.64
289.649	8910.5
289.716	8914.01
289.783	8913.72
289.851	8939.57
289.918	8945.11
289.986	8959.12
290.053	8963.98
290.121	8966
290.188	8967.01
290.255	8999.12
290.323	8996.57
290.39	8991.03
290.458	8999.89
290.525	9015.97
290.592	9013.22
290.66	9009.37
290.727	9013.8
290.794	9027.28
290.862	9021.6
290.929	9028.34
290.996	9028.1
291.064	9040.33
291.131	9044.32
291.198	9050.25
291.266	9039.89
291.333	9044.61
291.4	9044.9
291.468	9067.15
291.535	9056.46
291.602	9059.83
291.669	9051.06
291.737	9052.56
291.804	9052.75
291.871	9069.21
291.938	9076.1
292.006	9096.18
292.073	9112.16
292.14	9114.86
292.207	9111.78
292.275	9113.94
292.342	9119.72
292.409	9145.53
292.476	9173.31
292.543	9167.78
292.611	9165.61
292.678	9191.42
292.745	9214.58
292.812	9227.58
292.879	9221.75
292.946	9230.17
293.014	9245.39
293.081	9255.79
293.148	9271.97
293.215	9290.12
293.282	9286.07
293.349	9293.68
293.416	9277.5
293.484	9291.23
293.551	9304.27
293.618	9320.16
293.685	9347.61
293.752	9351.03
293.819	9350.59
293.886	9326.32
293.953	9335.86
294.02	9351.84
294.087	9357
294.154	9347.46
294.221	9367.35
294.288	9365.23
294.356	9383.05
294.423	9392.63
294.49	9386.81
294.557	9394.94
294.624	9378.62
294.691	9394.99
294.758	9393.6
294.825	9403.8
294.892	9395.57
294.959	9395.33
295.026	9402.26
295.093	9400.77
295.16	9400
295.226	9391.62
295.293	9423.98
295.36	9431.06
295.427	9444.59
295.494	9456.83
295.561	9468.48
295.628	9486.98
295.695	9504.99
295.762	9508.6
295.829	9513.08
295.896	9527.72
295.963	9540.67
296.03	9559.26
296.096	9566.92
296.163	9579.87
296.23	9591.43
296.297	9602.79
296.364	9602.36
296.431	9604
296.498	9596.49
296.564	9619.84
296.631	9630.29
296.698	9614.69
296.765	9633.28
296.832	9622.25
296.899	9604.19
296.965	9618.2
297.032	9595.03
297.099	9612.52
297.166	9621.04
297.233	9622.58
297.299	9616.51
297.366	9617
297.433	9619.89
297.5	9629.37
297.566	9626.72
297.633	9629.13
297.7	9633.66
297.767	9627.5
297.833	9642.38
297.9	9645.12
297.967	9628.12
298.033	9639.63
298.1	9670.27
298.167	9664.06
298.234	9668.1
298.3	9684.96
298.367	9681.49
298.434	9688.62
298.5	9674.31
298.567	9669.98
298.634	9662.08
298.7	9678.69
298.767	9681.39
298.834	9696.03
298.9	9693.72
298.967	9688.42
299.033	9703.89
299.1	9722.33
299.167	9744.15
299.233	9733.21
299.3	9748.29
299.366	9768.32
299.433	9786.34
299.5	9757.15
299.566	9760.18
299.633	9776.22
299.699	9788.07
299.766	9785.33
299.832	9792.36
299.899	9806.71
299.965	9828.05
300.032	9829.69
300.099	9838.36
300.165	9842.5
300.232	9835.81
300.298	9833.93
300.365	9849.77
300.431	9845
300.498	9838.4
300.564	9848.42
300.631	9860.46
300.697	9878.24
300.763	9880.5
300.83	9877.95
300.896	9895.48
300.963	9908.25
301.029	9915.13
301.096	9917.74
301.162	9932.76
301.229	9928.67
301.295	9915.62
301.361	9910.51
301.428	9913.16
301.494	9893.7
301.561	9898.18
301.627	9902.32
301.693	9907.14
301.76	9910.99
301.826	9901.45
301.892	9909.5
301.959	9915.52
302.025	9913.93
302.092	9901.26
302.158	9902.47
302.224	9903.29
302.291	9892.69
302.357	9884.11
302.423	9872.7
302.49	9858.63
302.556	9871.3
302.622	9869.76
302.688	9884.16
302.755	9898.18
302.821	9906.56
302.887	9921.78
302.954	9918.22
303.02	9928.72
303.086	9930.93
303.152	9928.67
303.219	9931.46
303.285	9940.23
303.351	9946.25
303.417	9950.3
303.483	9939.99
303.55	9933.68
303.616	9936.19
303.682	9932.38
303.748	9930.17
303.815	9947.99
303.881	9967.79
303.947	9955.07
304.013	9952.61
304.079	9941.44
304.145	9913.74
304.212	9917.26
304.278	9910.95
304.344	9909.07
304.41	9894.96
304.476	9889.13
304.542	9888.21
304.608	9892.88
304.674	9869.62
304.741	9862.39
304.807	9863.16
304.873	9872.07
304.939	9893.89
305.005	9872.84
305.071	9877.18
305.137	9872.65
305.203	9844.81
305.269	9833.83
305.335	9844.86
305.401	9849.39
305.467	9843.9
305.533	9854.64
305.599	9857.96
305.666	9865.28
305.732	9865.91
305.798	9882.28
305.864	9911.91
305.93	9917.45
305.996	9913.16
306.062	9917.64
306.128	9916.58
306.194	9905.55
306.259	9906.47
306.325	9893.08
306.391	9908.1
306.457	9918.27
306.523	9925.83
306.589	9957.19
306.655	9949.1
306.721	9924.48
306.787	9905.41
306.853	9921.64
306.919	9906.28
306.985	9906.04
307.051	9901.41
307.117	9891.73
307.183	9882.39
307.248	9843.42
307.314	9846.26
307.38	9849.44
307.446	9856.76
307.512	9839.61
307.578	9837.3
307.644	9824.87
307.709	9827.96
307.775	9821.74
307.841	9813.94
307.907	9814.85
307.973	9792.31
308.039	9793.08
308.104	9804.3
308.17	9809.12
308.236	9796.45
308.302	9801.99
308.368	9789.18
308.433	9788.65
308.499	9791.54
308.565	9776.27
308.631	9786.72
308.696	9759.75
308.762	9752.09
308.828	9748
308.894	9731.09
308.959	9719
309.025	9715.2
309.091	9707.73
309.156	9694.25
309.222	9694.92
309.288	9683.17
309.354	9657.21
309.419	9654.95
309.485	9640.02
309.551	9645.46
309.616	9630.63
309.682	9625.62
309.748	9616.08
309.813	9607.8
309.879	9594.36
309.945	9582.47
310.01	9574.09
310.076	9577.36
310.141	9569.56
310.207	9553.81
310.273	9556.7
310.338	9557.37
310.404	9542.35
310.469	9528.72
310.535	9518.75
310.601	9498.57
310.666	9505.07
310.732	9516.1
310.797	9503.39
310.863	9492.07
310.928	9484.03
310.994	9491.01
311.059	9487.3
311.125	9484.85
311.191	9498.96
311.256	9484.22
311.322	9492.55
311.387	9476.33
311.453	9792.83
311.518	9766.35
311.584	9762.88
311.649	9770.2
311.715	9759.71
311.78	9760.19
311.846	9749.69
311.911	9757.15
311.976	9752.63
312.042	9731.97
312.107	9716.61
312.173	9705.1
312.238	9696.38
312.304	9689.3
312.369	9673.22
312.434	9669.46
312.5	9659.21
312.565	9627.23
312.631	9635.75
312.696	9626.41
312.761	9625.5
312.827	9299.84
312.892	9343.37
312.958	9338.89
313.023	9335.67
313.088	9337.98
313.154	9324.59
313.219	9312.56
313.284	9302.25
313.35	9298.3
313.415	9288.91
313.48	9288.43
313.546	9296.14
313.611	9308.51
313.676	9303.36
313.741	9298.06
313.807	9299.56
313.872	9309.09
313.937	9314.72
314.003	9327.1
314.068	9329.03
314.133	9332.2
314.198	9323.01
314.264	9296.81
314.329	9287.51
314.394	9282.17
314.459	9268.98
314.525	9291.51
314.59	9287.32
314.655	9276.97
314.72	9289.1
314.785	9294.74
314.851	9289.3
314.916	9273.7
314.981	9258.05
315.046	9240.52
315.111	9224.73
315.176	9206.82
315.242	9207.45
315.307	9201.28
315.372	9178.75
315.437	9167.05
315.502	9155.64
315.567	9170.42
315.632	9160.26
315.698	9163.78
315.763	9163.2
315.828	9156.51
315.893	9149.57
315.958	9147.26
316.023	9137.2
316.088	9117.31
316.153	9096.08
316.218	9086.02
316.283	9061.71
316.348	9041.45
316.413	9046.07
316.479	9033.99
316.544	9007.23
316.609	8973.58
316.674	8940.65
316.739	8910.04
316.804	8878.95
316.869	8846.89
316.934	8801.98
316.999	8770.01
317.064	8716.25
317.129	8667.35
317.194	8634.96
317.259	8588.37
317.324	8539.24
317.389	8494.25
317.454	8454.11
317.518	8416.29
317.583	8390.02
317.648	8370.1
317.713	8335.89
317.778	8271.89
317.843	8244.9
317.908	8206.95
317.973	8167.69
318.038	8138.39
318.103	8095.2
318.168	8067.39
318.233	8037.57
318.297	7988.94
318.362	7947.04
318.427	7907.08
318.492	7881.3
318.557	7833.41
318.622	7802.43
318.687	7780.89
318.751	7738.44
318.816	7709.34
318.881	7677.66
318.946	7621.93
319.011	7577.16
319.075	7538.7
319.14	7508.61
319.205	7465.29
319.27	7430.01
319.335	7386.99
319.399	7346.52
319.464	7318.5
319.529	7258.14
319.594	7217.57
319.658	7192.82
319.723	7153.55
319.788	7125.54
319.853	7070.28
319.917	7044.58
319.982	6990.91
320.047	6950.69
320.112	6921.25
320.176	6864.13
320.241	6828.34
320.306	6801.58
320.37	6755.47
320.435	6722.67
320.5	6693.85
320.564	6652.6
320.629	6610.39
320.694	6576.49
320.758	6533.37
320.823	6493.52
320.888	6472.93
320.952	6423.62
321.017	6373.07
321.082	6331.21
321.146	6300.97
321.211	6268.29
321.275	6224.47
321.34	6179.03
321.405	6134.26
321.469	6097.8
321.534	6055.29
321.598	6005.78
321.663	5973.67
321.727	5946.81
321.792	5894.81
321.857	5848.66
321.921	5805.4
321.986	5761.96
322.05	5701.6
322.115	5662.8
322.179	5617.97
322.244	5558
322.308	5522.48
322.373	5477.66
322.437	5436.44
322.502	5401.2
322.566	5353.89
322.631	5319.86
322.695	5285.17
322.76	5244.21
322.824	5203.77
322.889	5160.18
322.953	5114.01
323.018	5047.8
323.082	4978.61
323.146	4928
323.211	4874.23
323.275	4837.45
323.34	4790.79
323.404	4760.44
323.468	4714.15
323.533	4667.72
323.597	4623.14
323.662	4572.26
323.726	4540.53
323.79	4493.98
323.855	4429.7
323.919	4379.95
323.983	4328
324.048	4258.44
324.112	4418.97
324.177	4289.13
324.241	4070.75
324.305	3854.37
324.37	3639.66
324.434	3438.92
324.498	3396.04
324.562	3345.11
324.627	3278.19
324.691	3224.03
324.755	3153.61
324.82	3073.94
324.884	2993.65
324.948	2918.22
325.012	2819.86
325.077	2685.44
