Data from 20250703_urea_0.1M_MAYP1162681_09-21-05-326.txt Node
Date: Fri Jul 04 09:21:05 BST 2025
User: adleo
Spectrometer: MAYP116268
Trigger mode: 0
Integration Time (sec): 1.000000E0
Scans to average: 1
Electric dark correction enabled: true
Nonlinearity correction enabled: true
Boxcar width: 10
XAxis mode: Wavelengths
Number of Pixels in Spectrum: 2068
>>>>>Begin Spectral Data<<<<<
179.565	1220.1
179.642	1275.26
179.718	1316.87
179.795	1355.74
179.871	1387.9
179.948	1406.37
180.024	1425.95
180.101	1449.01
180.177	1461.88
180.254	1484.08
180.33	1506.31
180.407	1561.1
180.483	1657.07
180.56	1748.43
180.636	1832.85
180.712	1817.3
180.789	1828.95
180.865	1841.54
180.942	1847.95
181.018	1858.5
181.095	1870.3
181.171	1874.96
181.248	1876.91
181.324	1893.55
181.4	1900.92
181.477	1912.66
181.553	1924.21
181.63	1948.37
181.706	1963.77
181.782	1972.85
181.859	1974.71
181.935	1981.22
182.011	1977.84
182.088	1995.39
182.164	2011.47
182.24	2025.07
182.317	2034
182.393	2028.63
182.469	2044.28
182.546	2057.97
182.622	2065.58
182.698	2059.59
182.775	2071.48
182.851	2084.08
182.927	2077.85
183.003	2076.19
183.08	2069.24
183.156	2078.37
183.232	2070.29
183.308	2060.97
183.385	2069.24
183.461	2086.13
183.537	2088.31
183.613	2099.11
183.69	2090.02
183.766	2081.37
183.842	2087.07
183.918	2092.5
183.995	2107.38
184.071	2110.04
184.147	2105.29
184.223	2091.21
184.299	2105.01
184.375	2092.93
184.452	2098.4
184.528	2148.6
184.604	2154.92
184.68	2168
184.756	2172.81
184.832	2177.76
184.908	2180.28
184.985	2179.75
185.061	2161.82
185.137	2170.34
185.213	2161.58
185.289	2160.63
185.365	2154.5
185.441	2154.74
185.517	2168.54
185.593	2167.3
185.669	2162.26
185.745	2174.01
185.822	2190.94
185.898	2184.61
185.974	2194.45
186.05	2188.74
186.126	2152.87
186.202	2149.3
186.278	2144.07
186.354	2137.88
186.43	2145.83
186.506	2144.45
186.582	2145.21
186.658	2152.68
186.734	2130.84
186.81	2131.75
186.886	2134.84
186.962	2149.78
187.038	2147.97
187.114	2141.07
187.19	2145.97
187.266	2141.83
187.341	2141.21
187.417	2133.79
187.493	2129.75
187.569	2131.65
187.645	2126.09
187.721	2115.19
187.797	2121.13
187.873	2126.56
187.949	2119.85
188.025	2113.52
188.101	2117.19
188.176	2124.61
188.252	2121.52
188.328	2131.02
188.404	2129.46
188.48	2125.98
188.556	2116.28
188.632	2115.37
188.707	2116.23
188.783	2116.37
188.859	2106.77
188.935	2097.44
189.011	2105.86
189.086	2099.44
189.162	2090.6
189.238	2089.69
189.314	2088.69
189.39	2081.61
189.465	2074.33
189.541	2093.12
189.617	2078.71
189.693	2074.9
189.768	2075.86
189.844	2101.51
189.92	2095.47
189.996	2105.69
190.071	2117.97
190.147	2116.54
190.223	2124.25
190.298	2117.73
190.374	2102.94
190.45	2117.49
190.526	2126.86
190.601	2119.87
190.677	2122.34
190.753	2150.37
190.828	2152.61
190.904	2165.88
190.98	2183.82
191.055	2194.81
191.131	2185.82
191.207	2205.6
191.282	2214.88
191.358	2204.65
191.433	2188.37
191.509	2195.98
191.585	2193.55
191.66	2193.27
191.736	2201.74
191.811	2193.27
191.887	2207.88
191.963	2233.19
192.038	2239.19
192.114	2235.33
192.189	2240.75
192.265	2237.43
192.34	2215.77
192.416	2214.29
192.491	2208.72
192.567	2207.44
192.642	2211.58
192.718	2209.15
192.793	2198.78
192.869	2194.02
192.944	2197.88
193.02	2205.63
193.095	2214.24
193.171	2222.76
193.246	2221.86
193.322	2220
193.397	2220.86
193.473	2206.06
193.548	2186.31
193.624	2190.69
193.699	2190.74
193.775	2208.68
193.85	2211.77
193.925	2220.76
194.001	2222.05
194.076	2214.44
194.152	2206.16
194.227	2197.49
194.302	2192.45
194.378	2194.83
194.453	2191.03
194.529	2203.4
194.604	2187.6
194.679	2178.47
194.755	2156.78
194.83	2171.11
194.905	2167.73
194.981	2179.01
195.056	2173.39
195.131	2181.43
195.207	2180.96
195.282	2171.35
195.357	2150.26
195.433	2166.77
195.508	2158.02
195.583	2161.92
195.659	2178.1
195.734	2188.42
195.809	2186.52
195.884	2192.61
195.96	2195.04
196.035	2212.12
196.11	2208.07
196.185	2220.25
196.261	2226.2
196.336	2258.65
196.411	2240.8
196.486	2246.13
196.561	2239.13
196.637	2248.93
196.712	2264.45
196.787	2265.88
196.862	2283.53
196.937	2293.52
197.013	2295.18
197.088	2303.56
197.163	2326.93
197.238	2342.65
197.313	2337.84
197.388	2352.88
197.464	2383.16
197.539	2392.25
197.614	2385.07
197.689	2398.35
197.764	2414.49
197.839	2431.2
197.914	2424.91
197.989	2451.34
198.065	2468.14
198.14	2519.51
198.215	2545.31
198.29	2555.75
198.365	2569.13
198.44	2579.46
198.515	2608.04
198.59	2625.09
198.665	2651.09
198.74	2658.62
198.815	2658.77
198.89	2684.53
198.965	2715.22
199.04	2710.93
199.115	2726.27
199.19	2769.95
199.265	2770.24
199.34	2782.77
199.415	2818.86
199.49	2837.1
199.565	2845.63
199.64	2865.17
199.715	2861.31
199.79	2870.74
199.865	2876.89
199.94	2876.22
200.015	2908.31
200.09	2913.26
200.165	2922.08
200.24	2929.47
200.315	2975.18
200.39	2993.49
200.464	3000.07
200.539	3002.26
200.614	3021.75
200.689	3044.92
200.764	3050.74
200.839	3069.99
200.914	3075.67
200.989	3065.75
201.063	3083.1
201.138	3065.38
201.213	3070.67
201.288	3048.98
201.363	3050.22
201.438	3054.41
201.512	3071.71
201.587	3052.35
201.662	3056.88
201.737	3071.24
201.812	3079.3
201.886	3042.07
201.961	3052.61
202.036	3040.79
202.111	3036.26
202.186	3007.77
202.26	2992.89
202.335	2969.24
202.41	2962.04
202.485	2946.55
202.559	2925.25
202.634	2897.98
202.709	2910.89
202.784	2894.11
202.858	2897.3
202.933	2884.48
203.008	2876.24
203.082	2858.46
203.157	2861.37
203.232	2824.87
203.306	2804.23
203.381	2776.15
203.456	2759.95
203.53	2742.44
203.605	2725.68
203.68	2711.37
203.754	2710.61
203.829	2702.94
203.904	2696.46
203.978	2697.56
204.053	2711.57
204.127	2710.62
204.202	2723.2
204.277	2718.62
204.351	2720.57
204.426	2727.44
204.5	2732.97
204.575	2717.58
204.65	2744.65
204.724	2759.29
204.799	2783.25
204.873	2802.47
204.948	2824.29
205.022	2831.92
205.097	2847.75
205.171	2891.41
205.246	2926.85
205.32	2955.73
205.395	2985.53
205.469	3006.12
205.544	3045.57
205.618	3061.17
205.693	3111.59
205.767	3136.01
205.842	3192.4
205.916	3228.85
205.991	3264.44
206.065	3316.08
206.14	3377.27
206.214	3423.12
206.289	3466.25
206.363	3531.94
206.438	3586.63
206.512	3651.88
206.586	3730.96
206.661	3792.46
206.735	3831.92
206.81	3892.44
206.884	3970.85
206.958	4023.36
207.033	4107.75
207.107	4180.22
207.181	4280.66
207.256	4343.36
207.33	4434.61
207.405	4521.79
207.479	4613.32
207.553	4693.94
207.628	4752.26
207.702	4842.11
207.776	4912.69
207.851	4989.59
207.925	5079.84
207.999	5153.09
208.073	5228.45
208.148	5313.61
208.222	5385.83
208.296	5496.13
208.371	5594.3
208.445	5690.98
208.519	5804.8
208.593	5905.28
208.668	5991.27
208.742	6083.77
208.816	6169.68
208.89	6280.24
208.965	6369.03
209.039	6463.94
209.113	6568.46
209.187	6685.91
209.261	6769.36
209.336	6881.37
209.41	6997.14
209.484	7091.56
209.558	7204.81
209.632	7310.28
209.707	7410.97
209.781	7528.05
209.855	7635.5
209.929	7748.48
210.003	7844.22
210.077	7935.83
210.151	8074.87
210.226	8192.59
210.3	8304.95
210.374	8421.59
210.448	8508.4
210.522	8600.08
210.596	8703.78
210.67	8802.92
210.744	8933.37
210.818	9057.1
210.892	9166.92
210.966	9251.41
211.041	9355.21
211.115	9437.44
211.189	9548.91
211.263	9656.11
211.337	9742.59
211.411	9845.23
211.485	9923.89
211.559	10018.34
211.633	10104.16
211.707	10147.04
211.781	10238.48
211.855	10292.01
211.929	10367.97
212.003	10436.33
212.077	10532.45
212.151	10626.17
212.225	10719.93
212.299	10788.31
212.373	10855.53
212.447	10933.26
212.52	11036.44
212.594	11119.66
212.668	11222.98
212.742	11290.4
212.816	11362.26
212.89	11442.55
212.964	11512.39
213.038	11599.15
213.112	11692.51
213.186	11789.19
213.26	11847.41
213.333	11880.18
213.407	11958.02
213.481	12043.09
213.555	12133.13
213.629	12202.2
213.703	12260.19
213.777	12327.24
213.85	12383.88
213.924	12488.29
213.998	12560.6
214.072	12627.89
214.146	12688.49
214.219	12749.37
214.293	12815.22
214.367	12887.57
214.441	12965.28
214.515	13029.25
214.588	13070.37
214.662	13101.37
214.736	13144.85
214.81	13223.62
214.883	13303.59
214.957	13354.78
215.031	13402.89
215.105	13435.91
215.178	13481.52
215.252	13535.89
215.326	13566.31
215.4	13605.46
215.473	13618.95
215.547	13651.93
215.621	13691.99
215.694	13750.17
215.768	13781.75
215.842	13818.43
215.915	13859.12
215.989	13881.39
216.063	13922.8
216.136	13968.55
216.21	14020.37
216.284	14080.24
216.357	14133.22
216.431	14176.94
216.504	14236.18
216.578	14318.71
216.652	14381.14
216.725	14431.27
216.799	14487.43
216.873	14553.37
216.946	14611.37
217.02	14657.59
217.093	14708.88
217.167	14744.22
217.24	14784.03
217.314	14835.42
217.387	14888.49
217.461	14922.86
217.535	14990.2
217.608	15032.96
217.682	15087.81
217.755	15149.42
217.829	15193.09
217.902	15241.14
217.976	15286.5
218.049	15333.5
218.123	15357.65
218.196	15406.57
218.27	15453.47
218.343	15486.25
218.417	15532.23
218.49	15576.77
218.563	15640.88
218.637	15700.79
218.71	15767.16
218.784	15821.63
218.857	15880.24
218.931	15932.05
219.004	15991.92
219.077	16045.51
219.151	16094.92
219.224	16139.5
219.298	16184.95
219.371	16239.8
219.444	16276.72
219.518	16321.98
219.591	16367.19
219.665	16447.53
219.738	16501.03
219.811	16537.95
219.885	16601.66
219.958	16662.97
220.031	16712.03
220.105	16764.76
220.178	16803.75
220.251	16844.14
220.325	16899.08
220.398	16950.55
220.471	17002.89
220.544	17060.05
220.618	17104.19
220.691	17147.37
220.764	17187.71
220.838	17244.24
220.911	17287.67
220.984	17355.23
221.057	17410.27
221.131	17463.33
221.204	17472.87
221.277	17540.92
221.35	17618.22
221.424	17656.1
221.497	17694.41
221.57	17739.52
221.643	17785.83
221.716	17834.56
221.79	17867.61
221.863	17906.5
221.936	17932.77
222.009	17971.03
222.082	18009.59
222.155	18038.31
222.229	18097.39
222.302	18146.69
222.375	18180.09
222.448	18229.24
222.521	18266.59
222.594	18306.1
222.667	18324.8
222.74	18367.88
222.814	18390.87
222.887	18424.6
222.96	18473.32
223.033	18518.62
223.106	18560.6
223.179	18609.51
223.252	18643.68
223.325	18680.06
223.398	18709.26
223.471	18761.93
223.544	18787.62
223.617	18816.39
223.69	18854.6
223.763	18871.85
223.837	18909.78
223.91	18939.9
223.983	18946.07
224.056	18954.6
224.129	18986.64
224.202	19030.45
224.275	19050.45
224.348	19060.28
224.42	19067.36
224.493	19072.18
224.566	19084.81
224.639	19109.53
224.712	19116.51
224.785	19141.38
224.858	19162.05
224.931	19180.46
225.004	19185.43
225.077	19210.97
225.15	19206.87
225.223	19220.46
225.296	19265.28
225.369	19264.36
225.442	19277.23
225.514	19298.58
225.587	19323.92
225.66	19342.33
225.733	19355.87
225.806	19382.47
225.879	19402.18
225.952	19411.63
226.025	19450.13
226.097	19484.11
226.17	19501.5
226.243	19501.12
226.316	19515
226.389	19530.03
226.461	19555.19
226.534	19579.43
226.607	19589.6
226.68	19632.2
226.753	19655.81
226.825	19645.16
226.898	19676.48
226.971	19693.64
227.044	19710.5
227.117	19729.3
227.189	19759.71
227.262	19788.38
227.335	19801.49
227.407	19817.05
227.48	19840.71
227.553	19847.32
227.626	19840.76
227.698	19848.81
227.771	19862.35
227.844	19858.83
227.916	19873.63
227.989	19857.34
228.062	19858.83
228.134	19888.52
228.207	19894.01
228.28	19893.48
228.352	19897.44
228.425	19909.1
228.498	19928.95
228.57	19933.77
228.643	19958.88
228.716	19947.55
228.788	19950.06
228.861	19952.28
228.934	19973.48
229.006	19975.79
229.079	19968.18
229.151	19968.08
229.224	19956.08
229.296	19967.99
229.369	20001
229.442	20023.74
229.514	20029.38
229.587	20046.2
229.659	20038.49
229.732	20051.26
229.804	20065.86
229.877	20100.75
229.949	20108.03
230.022	20123.12
230.094	20120.42
230.167	20124.08
230.239	20119.02
230.312	20121.67
230.384	20150.83
230.457	20153
230.529	20161.14
230.602	20167.31
230.674	20169.14
230.747	20188.99
230.819	20206.01
230.892	20178.1
230.964	20177.14
231.037	20187.02
231.109	20183.31
231.181	20187.89
231.254	20169.91
231.326	20167.84
231.399	20156.13
231.471	20141.81
231.544	20104.75
231.616	20113.91
231.688	20102.87
231.761	20096.61
231.833	20084.03
231.905	20058.3
231.978	20047.16
232.05	20038.59
232.122	20039.79
232.195	20044.71
232.267	20053.72
232.339	20038.63
232.412	20044.61
232.484	20030.78
232.556	20018.73
232.629	20031.65
232.701	20034.92
232.773	20034.2
232.846	20016.56
232.918	20017.29
232.99	20017.24
233.062	20029.38
233.135	20023.99
233.207	20005.14
233.279	20008.56
233.351	20004.37
233.424	19986.06
233.496	19971.55
233.568	19976.28
233.64	19952.57
233.713	19936.47
233.785	19920.9
233.857	19901.87
233.929	19874.16
234.001	19878.83
234.074	19883.56
234.146	19851.03
234.218	19830.35
234.29	19803.56
234.362	19782.55
234.434	19743.27
234.507	19708.34
234.579	19679.76
234.651	19655.23
234.723	19647.33
234.795	19633.01
234.867	19610.9
234.939	19604.87
235.012	19591.81
235.084	19570.99
235.156	19559.62
235.228	19538.95
235.3	19506.61
235.372	19501.79
235.444	19494.66
235.516	19453.89
235.588	19430.18
235.66	19417.17
235.732	19385.12
235.804	19429.56
235.876	19429.89
235.948	19427.97
236.02	19415.87
236.092	19387.39
236.164	19370.33
236.236	19339.63
236.308	19315.97
236.38	19298.53
236.452	19272.79
236.524	19258.63
236.596	19251.88
236.668	19234.97
236.74	19216.41
236.812	19208.03
236.884	19188.99
236.956	19162.54
237.028	19134.35
237.1	19107.12
237.172	19093.63
237.244	19094.59
237.316	19038.98
237.388	19009.15
237.46	18970.55
237.532	18960.38
237.604	18926.36
237.675	18919.37
237.747	18905.73
237.819	18866.51
237.891	18841.78
237.963	18808.24
238.035	18769.89
238.107	18703.58
238.178	18689.7
238.25	18660.45
238.322	18646.23
238.394	18598.28
238.466	18575.73
238.538	18549.18
238.609	18521.42
238.681	18467.64
238.753	18423.78
238.825	18386.29
238.897	18353.38
238.968	18343.11
239.04	18301.29
239.112	18306.2
239.184	18267.99
239.255	18232.81
239.327	18216.9
239.399	18191.51
239.471	18173.87
239.542	18146.69
239.614	18136.43
239.686	18085.44
239.758	18068.72
239.829	18032.57
239.901	18016.29
239.973	17994.07
240.044	17972.96
240.116	17939.95
240.188	17913.73
240.259	17893.3
240.331	17857.98
240.403	17829.54
240.474	17788.77
240.546	17751.38
240.618	17700.44
240.689	17658.46
240.761	17631.76
240.833	17620.34
240.904	17588.63
240.976	17549.79
241.048	17519.86
241.119	17503.09
241.191	17482.08
241.262	17466.22
241.334	17426.9
241.405	17392.54
241.477	17349.79
241.549	17317.02
241.62	17292.2
241.692	17268.3
241.763	17236.78
241.835	17200.73
241.906	17172.97
241.978	17127.23
242.049	17111.57
242.121	17089.79
242.192	17073.98
242.264	17027.9
242.335	16970.36
242.407	16939.47
242.478	16911.18
242.55	16882.93
242.621	16839.56
242.693	16796.33
242.764	16749.97
242.836	16715.31
242.907	16694.69
242.979	16667.36
243.05	16634.1
243.122	16607.74
243.193	16573.42
243.264	16523.97
243.336	16495.73
243.407	16480.41
243.479	16463.97
243.55	16433.85
243.622	16415.29
243.693	16372.64
243.764	16354.66
243.836	16312.29
243.907	16281.74
243.978	16246.12
244.05	16222.4
244.121	16176.37
244.192	16159.07
244.264	16119.21
244.335	16091.11
244.407	16033.8
244.478	16000.64
244.549	15965.75
244.62	15912.73
244.692	15880.14
244.763	15862.02
244.834	15834.21
244.906	15780.95
244.977	15761.62
245.048	15745.23
245.119	15696.02
245.191	15660.6
245.262	15606.95
245.333	15594.95
245.405	15562.31
245.476	15527.32
245.547	15493.58
245.618	15474.2
245.689	15442.92
245.761	15412.99
245.832	15381.56
245.903	15365.32
245.974	15342.9
246.045	15315.67
246.117	15310.12
246.188	15272.14
246.259	15230.3
246.33	15190.2
246.401	15158.96
246.473	15106.32
246.544	15067.91
246.615	15052.1
246.686	15027.46
246.757	15021.25
246.828	14977.19
246.899	14962.53
246.97	14923.92
247.042	14888.4
247.113	14861.21
247.184	14860.2
247.255	14822.65
247.326	14786.35
247.397	14754.68
247.468	14726.96
247.539	14695.82
247.61	14650.65
247.681	14635.42
247.752	14614.36
247.823	14576.08
247.894	14554.87
247.965	14518.96
248.037	14486.52
248.108	14441.83
248.179	14409.58
248.25	14370.05
248.321	14347.06
248.392	14307.82
248.463	14304.73
248.534	14276.78
248.605	14259.42
248.675	14216.91
248.746	14202.06
248.817	14185.67
248.888	14156.7
248.959	14109.41
249.03	14087.81
249.101	14055.32
249.172	14017.19
249.243	13966.96
249.314	13957.41
249.385	13932.97
249.456	13916.63
249.527	13889.97
249.598	13863.41
249.669	13835.02
249.739	13813.52
249.81	13794.23
249.881	13754.27
249.952	13718.79
250.023	13694.16
250.094	13649.28
250.165	13613.6
250.235	13580.73
250.306	13553.54
250.377	13524.08
250.448	13499.55
250.519	13447.29
250.59	13448.88
250.66	13417.26
250.731	13412.58
250.802	13385.44
250.873	13360.86
250.944	13339.5
251.014	13298.09
251.085	13301.03
251.156	13278.04
251.227	13270.28
251.297	13257.55
251.368	13241.69
251.439	13235.95
251.51	13217.59
251.58	13183.6
251.651	13153.52
251.722	13138.09
251.792	13100.64
251.863	13069.4
251.934	13069.26
252.005	13077.79
252.075	13040.81
252.146	13033
252.217	13024.13
252.287	13012.52
252.358	12992.17
252.429	12978.82
252.499	12957.95
252.57	12935.63
252.641	12922.85
252.711	12896.82
252.782	12860.43
252.852	12851.94
252.923	12830.64
252.994	12812.94
253.064	12808.08
253.135	12778.86
253.205	12748.78
253.276	12748.16
253.347	12744.78
253.417	12715.09
253.488	12692.86
253.558	12670.74
253.629	12644.71
253.699	12622.87
253.77	12607.73
253.841	12573.32
253.911	12556.16
253.982	12537.79
254.052	12527.86
254.123	12517.98
254.193	12501.01
254.264	12518.32
254.334	12490.74
254.405	12449.77
254.475	12414.92
254.546	12387.49
254.616	12380.21
254.687	12359.77
254.757	12335.09
254.827	12310.85
254.898	12297.16
254.968	12273.39
255.039	12241.97
255.109	12232.76
255.18	12202.25
255.25	12154.67
255.321	12144.69
255.391	12116.45
255.461	12120.3
255.532	12062.84
255.602	12034.89
255.673	11989
255.743	11953.04
255.813	11908.17
255.884	11899.78
255.954	11886.77
256.024	11883.25
256.095	11865.89
256.165	11840.01
256.235	11829.79
256.306	11808.44
256.376	11790.51
256.446	11781.69
256.517	11774.94
256.587	11761.64
256.657	11746.17
256.728	11727.56
256.798	11714.31
256.868	11683.65
256.938	11651.07
257.009	11652.61
257.079	11637.77
257.149	11649.14
257.219	11610.25
257.29	11604.61
257.36	11572.99
257.43	11562.63
257.5	11528.36
257.571	11494.82
257.641	11490.57
257.711	11462.09
257.781	11447.34
257.852	11433.6
257.922	11395.39
257.992	11370.85
258.062	11348.78
258.132	11337.26
258.202	11324.2
258.273	11305.94
258.343	11315.91
258.413	11288.06
258.483	11262.22
258.553	11223.24
258.623	11193.55
258.693	11187.96
258.764	11188.92
258.834	11189.07
258.904	11172.39
258.974	11140.15
259.044	11130.23
259.114	11116.49
259.184	11101.79
259.254	11086.13
259.324	11051.77
259.394	11038.66
259.464	11046.85
259.535	11016.98
259.605	10999
259.675	10973.85
259.745	10957.41
259.815	10925.13
259.885	10905.23
259.955	10916.45
260.025	10900.84
260.095	10886.77
260.165	10867.4
260.235	10864.03
260.305	10831.64
260.375	10798.44
260.445	10813.24
260.515	10818.44
260.585	10805.48
260.655	10781.38
260.725	10767.8
260.795	10758.01
260.865	10765.87
260.934	10734.4
261.004	10741.1
261.074	10727.56
261.144	10734.64
261.214	10731.51
261.284	10712
261.354	10711.71
261.424	10685.3
261.494	10690.55
261.564	10667.76
261.634	10662.02
261.703	10623.19
261.773	10615.14
261.843	10609.55
261.913	10585.27
261.983	10542.39
262.053	10531.26
262.123	10520.95
262.192	10489.73
262.262	10485
262.332	10452.77
262.402	10446.02
262.472	10425.84
262.541	10379.06
262.611	10370.29
262.681	10341.33
262.751	10334.54
262.821	10314.31
262.89	10286.99
262.96	10267.96
263.03	10278.17
263.1	10266.41
263.169	10253.79
263.239	10239.53
263.309	10245.89
263.379	10238.71
263.448	10229.42
263.518	10221.9
263.588	10210.05
263.657	10210.1
263.727	10207.16
263.797	10193
263.867	10172.71
263.936	10140.15
264.006	10144.92
264.076	10120.88
264.145	10097.18
264.215	10076.66
264.285	10069.1
264.354	10038.85
264.424	10022.23
264.494	9985.13
264.563	9960.81
264.633	9966.88
264.702	9961.96
264.772	9932.96
264.842	9917.98
264.911	9907.91
264.981	9877.47
265.05	9853.77
265.12	9845.05
265.19	9826.65
265.259	9818.37
265.329	9812.83
265.398	9805.89
265.468	9818.9
265.537	9804.78
265.607	9805.55
265.676	9801.46
265.746	9794.24
265.815	9791.63
265.885	9780.65
265.955	9757.2
266.024	9742.13
266.094	9704.8
266.163	9706.87
266.232	9708.36
266.302	9690.45
266.371	9682.5
266.441	9673.01
266.51	9676.14
266.58	9659.53
266.649	9637.66
266.719	9639.83
266.788	9633.76
266.858	9637.66
266.927	9601.78
266.996	9587.04
267.066	9577.03
267.135	9553.04
267.205	9547.99
267.274	9539.13
267.343	9541.34
267.413	9536
267.482	9535.08
267.552	9540.96
267.621	9508.69
267.69	9482.97
267.76	9473.05
267.829	9460.24
267.898	9447.96
267.968	9418.74
268.037	9424.03
268.106	9423.36
268.176	9396.58
268.245	9379.63
268.314	9363.59
268.384	9362.49
268.453	9362.25
268.522	9351.36
268.592	9350.02
268.661	9333.06
268.73	9329.55
268.799	9310.05
268.869	9316.93
268.938	9291.89
269.007	9271.33
269.076	9262.91
269.146	9256.99
269.215	9252.65
269.284	9260.98
269.353	9244.37
269.422	9241.2
269.492	9210.48
269.561	9169.84
269.63	9166.28
269.699	9157.23
269.768	9149.81
269.838	9141.48
269.907	9130.99
269.976	9107.35
270.045	9079.33
270.114	9074.04
270.183	9054.49
270.253	9050.11
270.322	9019.83
270.391	9010.25
270.46	9015.45
270.529	9016.41
270.598	9010.15
270.667	8994.6
270.736	8972.21
270.806	8973.61
270.875	8975.78
270.944	8965.52
271.013	8986.75
271.082	8972.74
271.151	8956.66
271.22	8927.49
271.289	8917.58
271.358	8909.73
271.427	8910.4
271.496	8903.09
271.565	8884.46
271.634	8880.85
271.703	8902.23
271.772	8906.7
271.841	8897.85
271.91	8876.52
271.979	8867.13
272.048	8846.48
272.117	8845.09
272.186	8831.42
272.255	8825.16
272.324	8819.38
272.393	8818.08
272.462	8804.89
272.531	8801.52
272.6	8793.39
272.669	8797.91
272.738	8783.47
272.807	8771.92
272.876	8756.42
272.945	8786.46
273.013	8788.67
273.082	8791.71
273.151	8743.33
273.22	8743.57
273.289	8742.36
273.358	8745.06
273.427	8729.7
273.496	8725.04
273.564	8727.25
273.633	8726.14
273.702	8705.83
273.771	8698.42
273.84	8694.62
273.909	8693.17
273.977	8696.5
274.046	8691.68
274.115	8696.93
274.184	8686.63
274.253	8686.05
274.322	8691.35
274.39	8658.57
274.459	8643.46
274.528	8616.17
274.597	8607.8
274.665	8601.11
274.734	8604.72
274.803	8594.37
274.872	8588.11
274.94	8576.52
275.009	8603.33
275.078	8593.66
275.147	8594.04
275.215	8586.2
275.284	8592.17
275.353	8580.23
275.421	8548.52
275.49	8562.33
275.559	8552.56
275.627	8545.68
275.696	8530.81
275.765	8530.43
275.833	8521.28
275.902	8524.36
275.971	8536.87
276.039	8553.04
276.108	8552.61
276.177	8544.81
276.245	8539.67
276.314	8538.56
276.383	8548.81
276.451	8510.68
276.52	8508.95
276.588	8520.02
276.657	8527.14
276.725	8518.81
276.794	8521.51
276.863	8533.63
276.931	8508.66
277	8519.05
277.068	8530.65
277.137	8546.38
277.205	8541.43
277.274	8558.65
277.342	8567.17
277.411	8546
277.48	8533.2
277.548	8523.14
277.617	8527.33
277.685	8518.96
277.754	8524.06
277.822	8510.06
277.89	8524.64
277.959	8521.51
278.027	8503.47
278.096	8483.3
278.164	8506.89
278.233	8495.97
278.301	8490.82
278.37	8493.94
278.438	8482.06
278.507	8482.25
278.575	8460.31
278.643	8456.12
278.712	8438.27
278.78	8421.18
278.849	8434.61
278.917	8441.97
278.985	8439.95
279.054	8441.06
279.122	8456.45
279.191	8447.98
279.259	8446.93
279.327	8424.45
279.396	8435.37
279.464	8432.63
279.532	8443.7
279.601	8439.32
279.669	8429.36
279.737	8431.57
279.806	8438.84
279.874	8442.11
279.942	8436.62
280.011	8430.18
280.079	8443.27
280.147	8458.81
280.215	8464.39
280.284	8456.12
280.352	8446.4
280.42	8455.97
280.488	8452.41
280.557	8444.47
280.625	8454.48
280.693	8454.09
280.761	8455.83
280.83	8443.27
280.898	8451.06
280.966	8434.22
281.034	8397.74
281.102	8385.96
281.171	8388.27
281.239	8397.17
281.307	8389.91
281.375	8379.51
281.443	8406.41
281.512	8395.34
281.58	8405.83
281.648	8388.47
281.716	8392.22
281.784	8390.87
281.852	8377.69
281.92	8364.26
281.989	8369.7
282.057	8347.61
282.125	8394.45
282.193	8389.59
282.261	8385.74
282.329	8386.89
282.397	8387.85
282.465	8391.03
282.533	8410.37
282.601	8390.98
282.67	8363.79
282.738	8358.55
282.806	8375.82
282.874	8361.67
282.942	8366.39
283.01	8353.25
283.078	8359.89
283.146	8358.88
283.214	8369.08
283.282	8371.96
283.35	8389.38
283.418	8381.88
283.486	8394.67
283.554	8346.98
283.622	8347.27
283.69	8346.16
283.758	8334.71
283.826	8343.08
283.894	8359.39
283.962	8378.16
284.03	8399.33
284.098	8403.8
284.165	8393.89
284.233	8386.15
284.301	8378.5
284.369	8369.21
284.437	8364.01
284.505	8358.48
284.573	8371.33
284.641	8360.26
284.709	8371.04
284.777	8358.58
284.845	8365.99
284.912	8367.33
284.98	8374.26
285.048	8365.07
285.116	8370.94
285.184	8393.22
285.252	8393.94
285.319	8372.58
285.387	8368.34
285.455	8350.49
285.523	8352.8
285.591	8352.03
285.659	8356.94
285.726	8369.45
285.794	8357.04
285.862	8349.63
285.93	8352.85
285.997	8344
286.065	8339.62
286.133	8333.51
286.201	8328.27
286.269	8315.23
286.336	8300.41
286.404	8298.1
286.472	8309.16
286.539	8293.29
286.607	8275.77
286.675	8274.23
286.743	8283.04
286.81	8268.94
286.878	8283.32
286.946	8275.87
287.013	8280.44
287.081	8279.95
287.149	8265.04
287.216	8286.54
287.284	8291.16
287.352	8292.41
287.419	8288.37
287.487	8302.04
287.555	8301.46
287.622	8295.98
287.69	8304.93
287.758	8320.23
287.825	8308.44
287.893	8298.33
287.96	8304.59
288.028	8309.83
288.096	8316.23
288.163	8325.13
288.231	8318.45
288.298	8316.76
288.366	8331.92
288.433	8324.8
288.501	8312.91
288.569	8320.76
288.636	8313.06
288.704	8317.48
288.771	8321.62
288.839	8317.92
288.906	8312.05
288.974	8321.72
289.041	8318.11
289.109	8309.31
289.176	8322.88
289.244	8337.89
289.311	8358.24
289.379	8367.86
289.446	8371.19
289.514	8365.41
289.581	8358.05
289.649	8361.56
289.716	8369.26
289.783	8364.16
289.851	8389.27
289.918	8390.81
289.986	8400
290.053	8399.57
290.121	8399.72
290.188	8404.53
290.255	8430.03
290.323	8423.63
290.39	8417.42
290.458	8428.25
290.525	8435.03
290.592	8426.66
290.66	8428.05
290.727	8418.77
290.794	8428.1
290.862	8428.39
290.929	8430.89
290.996	8432.67
291.064	8446.68
291.131	8456.11
291.198	8469.29
291.266	8462.56
291.333	8465.83
291.4	8471.7
291.468	8498.84
291.535	8498.22
291.602	8507.41
291.669	8494.85
291.737	8499.9
291.804	8499.52
291.871	8518.72
291.938	8526.51
292.006	8553.18
292.073	8563.43
292.14	8569.83
292.207	8571.32
292.275	8574.21
292.342	8589.13
292.409	8618.68
292.476	8637.69
292.543	8625.23
292.611	8624.74
292.678	8646.4
292.745	8673.16
292.812	8684.52
292.879	8674.89
292.946	8684.13
293.014	8691.06
293.081	8704.63
293.148	8719.74
293.215	8735.24
293.282	8729.66
293.349	8741.45
293.416	8725.66
293.484	8738.17
293.551	8751.6
293.618	8767.73
293.685	8793.58
293.752	8786.6
293.819	8786.79
293.886	8774.95
293.953	8786.06
294.02	8795.31
294.087	8798.63
294.154	8793.09
294.221	8804.55
294.288	8804.12
294.356	8820.14
294.423	8830.06
294.49	8819.86
294.557	8837.72
294.624	8826.98
294.691	8845.37
294.758	8850.42
294.825	8851.68
294.892	8841.71
294.959	8837.57
295.026	8842.53
295.093	8832.57
295.16	8832.85
295.226	8829.63
295.293	8855.87
295.36	8863.95
295.427	8875.22
295.494	8884.41
295.561	8890.48
295.628	8910.99
295.695	8930.58
295.762	8928.8
295.829	8933.23
295.896	8957.39
295.963	8963.6
296.03	8976.5
296.096	8981.32
296.163	8993.88
296.23	9013.91
296.297	9028.54
296.364	9032.97
296.431	9032.49
296.498	9035.43
296.564	9061.61
296.631	9065.51
296.698	9044.42
296.765	9063.59
296.832	9052.61
296.899	9045.2
296.965	9064.12
297.032	9037.06
297.099	9052.42
297.166	9064.88
297.233	9060.17
297.299	9049.24
297.366	9050.06
297.433	9051.69
297.5	9062
297.566	9054.87
297.633	9051.89
297.7	9051.89
297.767	9053.38
297.833	9063.97
297.9	9065.8
297.967	9045.39
298.033	9055.02
298.1	9086.75
298.167	9074.52
298.234	9087.47
298.3	9097.87
298.367	9092.67
298.434	9110.14
298.5	9100.18
298.567	9091.85
298.634	9087.61
298.7	9106.92
298.767	9110.82
298.834	9130.03
298.9	9123.09
298.967	9120.54
299.033	9130.56
299.1	9149.86
299.167	9160.07
299.233	9155.25
299.3	9164.59
299.366	9183.13
299.433	9207.45
299.5	9187.27
299.566	9192.13
299.633	9206.77
299.699	9213.51
299.766	9213.7
299.832	9216.83
299.899	9219.63
299.965	9235.37
300.032	9238.79
300.099	9246.16
300.165	9255.69
300.232	9250.11
300.298	9254.2
300.365	9271.05
300.431	9276.06
300.498	9271.82
300.564	9284.34
300.631	9296.52
300.697	9311.69
300.763	9316.79
300.83	9309.66
300.896	9317.13
300.963	9327.29
301.029	9333.35
301.096	9337.64
301.162	9351.65
301.229	9347.12
301.295	9345.68
301.361	9353
301.428	9360.99
301.494	9347.65
301.561	9344.52
301.627	9349.58
301.693	9352.66
301.76	9352.76
301.826	9347.51
301.892	9355.94
301.959	9362.2
302.025	9358.87
302.092	9361.23
302.158	9363.35
302.224	9361.14
302.291	9358.97
302.357	9352.71
302.423	9342.65
302.49	9334.6
302.556	9342.07
302.622	9340.48
302.688	9347.8
302.755	9359.74
302.821	9365.57
302.887	9376.11
302.954	9372.21
303.02	9376.98
303.086	9385.5
303.152	9381.6
303.219	9373.85
303.285	9378.23
303.351	9378.67
303.417	9383.53
303.483	9373.22
303.55	9370
303.616	9374.24
303.682	9374.04
303.748	9372.46
303.815	9388.01
303.881	9399.95
303.947	9386.32
304.013	9386.66
304.079	9381.46
304.145	9359.36
304.212	9359.45
304.278	9347.7
304.344	9347.46
304.41	9335.96
304.476	9323.05
304.542	9321.85
304.608	9328.3
304.674	9310.48
304.741	9306.82
304.807	9306.68
304.873	9305.19
304.939	9322.38
305.005	9299.46
305.071	9293
305.137	9297.1
305.203	9275.47
305.269	9271.81
305.335	9286.98
305.401	9290.69
305.467	9290.88
305.533	9300.56
305.599	9312.07
305.666	9324.98
305.732	9325.36
305.798	9339.95
305.864	9373.9
305.93	9382.43
305.996	9383.82
306.062	9389.79
306.128	9390.03
306.194	9377.08
306.259	9380.79
306.325	9371.4
306.391	9379.29
306.457	9393.69
306.523	9395.76
306.589	9415.5
306.655	9403.61
306.721	9384.01
306.787	9369.09
306.853	9383.53
306.919	9363.55
306.985	9352.67
307.051	9344.29
307.117	9337.5
307.183	9330.86
307.248	9295.27
307.314	9292.23
307.38	9295.12
307.446	9302.44
307.512	9289.1
307.578	9295.94
307.644	9287.76
307.709	9286.84
307.775	9286.7
307.841	9281.01
307.907	9276.06
307.973	9257.13
308.039	9264.3
308.104	9272.11
308.17	9272.44
308.236	9257.27
308.302	9264.88
308.368	9254.91
308.433	9256.98
308.499	9252.99
308.565	9239.84
308.631	9247.02
308.696	9224.24
308.762	9211.92
308.828	9204.02
308.894	9190.25
308.959	9169.79
309.025	9164.83
309.091	9160.16
309.156	9149.04
309.222	9150.2
309.288	9147.02
309.354	9125.88
309.419	9122.37
309.485	9110.28
309.551	9115.15
309.616	9100.51
309.682	9095.41
309.748	9091.75
309.813	9088.76
309.879	9085.63
309.945	9074.42
310.01	9063.82
310.076	9073.89
310.141	9061.66
310.207	9044.71
310.273	9044.42
310.338	9055.88
310.404	9036.86
310.469	9025.84
310.535	9019.44
310.601	8995.27
310.666	8995.8
310.732	9009.09
310.797	8992.38
310.863	8976.4
310.928	8966.05
310.994	8970.72
311.059	8968.65
311.125	8954.83
311.191	8958.11
311.256	8938.9
311.322	8947.37
311.387	8927.35
311.453	9220.6
311.518	9206.02
311.584	9207.9
311.649	9217.62
311.715	9204.28
311.78	9207.65
311.846	9200.77
311.911	9210.16
311.976	9216.7
312.042	9204.76
312.107	9192.44
312.173	9189.02
312.238	9185.22
312.304	9183.97
312.369	9168.23
312.434	9158.17
312.5	9158.99
312.565	9125.34
312.631	9134.72
312.696	9125.67
312.761	9130.25
312.827	8824.48
312.892	8854.51
312.958	8850.61
313.023	8842.91
313.088	8843.3
313.154	8831.99
313.219	8820.92
313.284	8808.64
313.35	8801.76
313.415	8790.64
313.48	8780
313.546	8785.97
313.611	8798.53
313.676	8787.13
313.741	8784.05
313.807	8791.07
313.872	8790.35
313.937	8802.91
314.003	8815.91
314.068	8813.36
314.133	8819.28
314.198	8807.83
314.264	8793.43
314.329	8783.13
314.394	8779.09
314.459	8768.59
314.525	8786.84
314.59	8782.02
314.655	8775.14
314.72	8782.55
314.785	8781.74
314.851	8778.03
314.916	8755.84
314.981	8736.11
315.046	8734.09
315.111	8721.53
315.176	8707.42
315.242	8714.26
315.307	8707.81
315.372	8686.92
315.437	8675.56
315.502	8658.04
315.567	8666.17
315.632	8648.8
315.698	8651.25
315.763	8642.54
315.828	8635.75
315.893	8626.95
315.958	8626.27
316.023	8610.39
316.088	8592.2
316.153	8574.35
316.218	8569
316.283	8551.49
316.348	8530.71
316.413	8523.73
316.479	8507.27
316.544	8476.86
316.609	8446.64
316.674	8415.46
316.739	8377.89
316.804	8351.52
316.869	8322.23
316.934	8287.58
316.999	8260.01
317.064	8209.07
317.129	8168.51
317.194	8134.74
317.259	8093.75
317.324	8039.21
317.389	7998.18
317.454	7960.27
317.518	7928.39
317.583	7903.71
317.648	7887.36
317.713	7856.24
317.778	7799.92
317.843	7775.93
317.908	7738.37
317.973	7700.81
318.038	7669.85
318.103	7637.01
318.168	7607.83
318.233	7582.63
318.297	7537.15
318.362	7502.87
318.427	7466.49
318.492	7441.54
318.557	7397.61
318.622	7364.87
318.687	7346.75
318.751	7310.57
318.816	7276.15
318.881	7237.95
318.946	7184.45
319.011	7135.58
319.075	7097.28
319.14	7065
319.205	7024.39
319.27	6993.93
319.335	6952.9
319.399	6916.15
319.464	6889.44
319.529	6836.56
319.594	6792.41
319.658	6761.77
319.723	6720.36
319.788	6693.42
319.853	6647.5
319.917	6617.69
319.982	6569.43
320.047	6536.34
320.112	6511.04
320.176	6461.35
320.241	6431.63
320.306	6401.53
320.37	6363.46
320.435	6335.81
320.5	6308.07
320.564	6263.81
320.629	6217.8
320.694	6186.6
320.758	6147.78
320.823	6105.31
320.888	6079.16
320.952	6035.51
321.017	5996.45
321.082	5958.17
321.146	5924.3
321.211	5885.68
321.275	5844.92
321.34	5798.41
321.405	5751.6
321.469	5706.52
321.534	5666.97
321.598	5616.29
321.663	5588.42
321.727	5558.5
321.792	5503.14
321.857	5456.54
321.921	5419.59
321.986	5381.02
322.05	5323.56
322.115	5287.33
322.179	5245.74
322.244	5190.89
322.308	5160.32
322.373	5115.53
322.437	5068.78
322.502	5041.99
322.566	4998.5
322.631	4964.26
322.695	4935.29
322.76	4892.11
322.824	4854.33
322.889	4815.75
322.953	4772.29
323.018	4707.13
323.082	4642.76
323.146	4600.14
323.211	4551.43
323.275	4510.89
323.34	4467.65
323.404	4431.49
323.468	4386.76
323.533	4341.42
323.597	4299.68
323.662	4250.37
323.726	4215.79
323.79	4176.01
323.855	4111.29
323.919	4065.31
323.983	4022.95
324.048	3951.43
324.112	4095.81
324.177	3971.5
324.241	3765.22
324.305	3565.2
324.37	3366.9
324.434	3177.68
324.498	3135.09
324.562	3086.65
324.627	3027.03
324.691	2973.2
324.755	2911.52
324.82	2835.72
324.884	2760.57
324.948	2690.68
325.012	2594.67
325.077	2471
