Data from 20250703_urea_0.1M_MAYP1162681_03-31-05-012.txt Node
Date: Fri Jul 04 03:31:05 BST 2025
User: adleo
Spectrometer: MAYP116268
Trigger mode: 0
Integration Time (sec): 1.000000E0
Scans to average: 1
Electric dark correction enabled: true
Nonlinearity correction enabled: true
Boxcar width: 10
XAxis mode: Wavelengths
Number of Pixels in Spectrum: 2068
>>>>>Begin Spectral Data<<<<<
179.565	1298.08
179.642	1354.45
179.718	1405.3
179.795	1446.82
179.871	1481.07
179.948	1504.23
180.024	1527.32
180.101	1551.94
180.177	1566.93
180.254	1592.06
180.33	1616.83
180.407	1680.66
180.483	1782.48
180.56	1880.31
180.636	1971.71
180.712	1958.06
180.789	1967.47
180.865	1982.73
180.942	1991.01
181.018	2002.7
181.095	2016.88
181.171	2022.63
181.248	2026.29
181.324	2039.04
181.4	2048.7
181.477	2061.3
181.553	2072.34
181.63	2093.84
181.706	2111.63
181.782	2120.9
181.859	2118.14
181.935	2120.61
182.011	2115.19
182.088	2134.36
182.164	2154.3
182.24	2167.48
182.317	2179.27
182.393	2178.47
182.469	2190.5
182.546	2206.63
182.622	2209.77
182.698	2203.73
182.775	2215.72
182.851	2231.18
182.927	2221.52
183.003	2216.72
183.08	2210.49
183.156	2220.72
183.232	2216.96
183.308	2204.97
183.385	2216.33
183.461	2238.46
183.537	2243.03
183.613	2258.16
183.69	2247.79
183.766	2236.65
183.842	2244.41
183.918	2249.69
183.995	2262.25
184.071	2267.15
184.147	2260.63
184.223	2251.4
184.299	2266.68
184.375	2254.98
184.452	2261.21
184.528	2317.81
184.604	2327.85
184.68	2338.03
184.756	2346.88
184.832	2349.64
184.908	2355.69
184.985	2352.93
185.061	2335.37
185.137	2344.84
185.213	2329.18
185.289	2330.8
185.365	2324.33
185.441	2322.8
185.517	2336.71
185.593	2335.09
185.669	2330.28
185.745	2342.56
185.822	2357.36
185.898	2348.6
185.974	2356.59
186.05	2348.02
186.126	2311.51
186.202	2304.8
186.278	2304.09
186.354	2291.57
186.43	2300.38
186.506	2298.04
186.582	2299.33
186.658	2303.32
186.734	2279.49
186.81	2282.96
186.886	2285.15
186.962	2295.9
187.038	2294.52
187.114	2286
187.19	2293.62
187.266	2285.86
187.341	2286.15
187.417	2280.77
187.493	2280.01
187.569	2285.1
187.645	2277.77
187.721	2265.06
187.797	2274.67
187.873	2277.43
187.949	2271.77
188.025	2267.2
188.101	2270.11
188.176	2276.15
188.252	2275.06
188.328	2283.57
188.404	2284.19
188.48	2282.14
188.556	2276.24
188.632	2274
188.707	2275.38
188.783	2270.62
188.859	2264.58
188.935	2250.07
189.011	2259.06
189.086	2252.45
189.162	2240.84
189.238	2240.5
189.314	2238.93
189.39	2231.08
189.465	2222.9
189.541	2241.88
189.617	2224.18
189.693	2217.24
189.768	2216.95
189.844	2242.33
189.92	2235.19
189.996	2244.66
190.071	2252.14
190.147	2253.37
190.223	2262.89
190.298	2254.99
190.374	2242.19
190.45	2251.8
190.526	2263.03
190.601	2256.37
190.677	2257.89
190.753	2292.08
190.828	2293.46
190.904	2310.88
190.98	2328.3
191.055	2342.1
191.131	2334.34
191.207	2357.09
191.282	2368.84
191.358	2360.61
191.433	2343.99
191.509	2358.31
191.585	2351.55
191.66	2353.36
191.736	2355.93
191.811	2347.13
191.887	2363.36
191.963	2389.83
192.038	2398.97
192.114	2398.49
192.189	2401.87
192.265	2400.16
192.34	2376.48
192.416	2376.25
192.491	2368.77
192.567	2370.1
192.642	2371.39
192.718	2368.63
192.793	2355.59
192.869	2351.45
192.944	2352.54
193.02	2358.16
193.095	2359.54
193.171	2369.06
193.246	2370.53
193.322	2371.2
193.397	2374.77
193.473	2356.2
193.548	2334.73
193.624	2338.21
193.699	2334.49
193.775	2351.87
193.85	2352.4
193.925	2359.01
194.001	2360.35
194.076	2353.97
194.152	2341.68
194.227	2333.78
194.302	2323.12
194.378	2328.26
194.453	2326.55
194.529	2340.36
194.604	2330.5
194.679	2324.98
194.755	2303.9
194.83	2316.29
194.905	2313.43
194.981	2319.76
195.056	2317.33
195.131	2325.23
195.207	2325.38
195.282	2317.91
195.357	2298.29
195.433	2314.61
195.508	2303.71
195.583	2309.52
195.659	2324.56
195.734	2332.56
195.809	2333.8
195.884	2346.79
195.96	2346.03
196.035	2359.64
196.11	2353.21
196.185	2363.92
196.261	2368.97
196.336	2404.38
196.411	2388.86
196.486	2395.57
196.561	2388.62
196.637	2394.28
196.712	2409.81
196.787	2411.19
196.862	2427.18
196.937	2439.99
197.013	2444.94
197.088	2455.17
197.163	2479.8
197.238	2496.28
197.313	2496.76
197.388	2512.14
197.464	2540.86
197.539	2551.58
197.614	2545.01
197.689	2560.53
197.764	2577.59
197.839	2598.78
197.914	2589.77
197.989	2612.68
198.065	2626.35
198.14	2680.31
198.215	2712.6
198.29	2723.76
198.365	2736.9
198.44	2748.53
198.515	2779.46
198.59	2796.85
198.665	2823.72
198.74	2832.69
198.815	2832.4
198.89	2854.46
198.965	2881.78
199.04	2877.73
199.115	2896.6
199.19	2942.4
199.265	2947.11
199.34	2955.46
199.415	2992.42
199.49	3015.72
199.565	3024.83
199.64	3049.72
199.715	3046.18
199.79	3053.91
199.865	3062.59
199.94	3064.78
200.015	3096.78
200.09	3097.54
200.165	3103.07
200.24	3111.37
200.315	3155.39
200.39	3172.99
200.464	3181.76
200.539	3186.77
200.614	3204.22
200.689	3227.12
200.764	3232.32
200.839	3250.92
200.914	3256.02
200.989	3247.14
201.063	3259.69
201.138	3244.29
201.213	3245.77
201.288	3226.16
201.363	3233.18
201.438	3235.8
201.512	3253.3
201.587	3236.32
201.662	3242.71
201.737	3256.4
201.812	3267.47
201.886	3233.71
201.961	3245.64
202.036	3233.53
202.111	3227.28
202.186	3198.87
202.26	3181.98
202.335	3160.37
202.41	3153.03
202.485	3137.92
202.559	3115.74
202.634	3092.51
202.709	3105.05
202.784	3087.36
202.858	3091.74
202.933	3072.24
203.008	3067.14
203.082	3049.64
203.157	3050.68
203.232	3007.6
203.306	2994.43
203.381	2965.24
203.456	2945.21
203.53	2925.93
203.605	2911.26
203.68	2896.09
203.754	2898.52
203.829	2893.75
203.904	2885.22
203.978	2887.18
204.053	2905.15
204.127	2906.63
204.202	2921.17
204.277	2918.79
204.351	2929.32
204.426	2936.24
204.5	2947.59
204.575	2932.24
204.65	2966.25
204.724	2985.38
204.799	3021.08
204.873	3037.87
204.948	3062.62
205.022	3077.26
205.097	3101.98
205.171	3148.86
205.246	3197.11
205.32	3233.54
205.395	3270.53
205.469	3298.76
205.544	3341.92
205.618	3365.98
205.693	3421.78
205.767	3457.15
205.842	3527.92
205.916	3570.13
205.991	3614.4
206.065	3670.66
206.14	3747.33
206.214	3798.58
206.289	3848.81
206.363	3924.36
206.438	3991.87
206.512	4068.69
206.586	4157.65
206.661	4236.16
206.735	4293.67
206.81	4362.4
206.884	4456.2
206.958	4525.67
207.033	4626.46
207.107	4719.4
207.181	4837.1
207.256	4923.39
207.33	5025.29
207.405	5128.1
207.479	5242.26
207.553	5339.65
207.628	5418.26
207.702	5522.98
207.776	5612.44
207.851	5716.18
207.925	5828.72
207.999	5926.52
208.073	6020.92
208.148	6125.81
208.222	6215.75
208.296	6346.36
208.371	6470.69
208.445	6584.15
208.519	6720.33
208.593	6842.08
208.668	6946.86
208.742	7062.89
208.816	7170.22
208.89	7296.09
208.965	7403.21
209.039	7517.53
209.113	7648.92
209.187	7785.18
209.261	7886.23
209.336	8017.76
209.41	8156.49
209.484	8271.62
209.558	8404.5
209.632	8532.18
209.707	8656.43
209.781	8792.81
209.855	8925.76
209.929	9055.71
210.003	9173.46
210.077	9279.96
210.151	9438.11
210.226	9582.34
210.3	9717.26
210.374	9854.65
210.448	9976.46
210.522	10103.05
210.596	10231.72
210.67	10348.34
210.744	10507.23
210.818	10654.92
210.892	10786.22
210.966	10882.2
211.041	11009.94
211.115	11118.65
211.189	11247.55
211.263	11378.34
211.337	11486.86
211.411	11600.56
211.485	11697.82
211.559	11818.93
211.633	11922.6
211.707	11993.6
211.781	12100.47
211.855	12166.21
211.929	12253.98
212.003	12331.78
212.077	12435.03
212.151	12545.03
212.225	12657.59
212.299	12742.77
212.373	12826.84
212.447	12919.63
212.52	13048.58
212.594	13143.16
212.668	13243.72
212.742	13326.44
212.816	13408.68
212.89	13503.21
212.964	13601.12
213.038	13695.12
213.112	13794.86
213.186	13910.7
213.26	13979
213.333	14025.09
213.407	14120.97
213.481	14211.65
213.555	14310.71
213.629	14382.39
213.703	14449.3
213.777	14532.89
213.85	14599.94
213.924	14714.47
213.998	14798.87
214.072	14877.93
214.146	14942.23
214.219	15022.63
214.293	15094.12
214.367	15174.28
214.441	15254.25
214.515	15308.33
214.588	15358.27
214.662	15398.66
214.736	15438.72
214.81	15514.78
214.883	15597.79
214.957	15652.64
215.031	15718.67
215.105	15755.55
215.178	15810.16
215.252	15868.43
215.326	15909.88
215.4	15952.44
215.473	15970.18
215.547	16012.79
215.621	16054.67
215.694	16129.23
215.768	16167.5
215.842	16216.91
215.915	16263.42
215.989	16298.5
216.063	16351.09
216.136	16414.13
216.21	16469.12
216.284	16544.74
216.357	16608.12
216.431	16660.65
216.504	16729.04
216.578	16808.51
216.652	16879.7
216.725	16934.98
216.799	16991.08
216.873	17044.05
216.946	17096
217.02	17145.79
217.093	17193.16
217.167	17224.82
217.24	17257.55
217.314	17309.26
217.387	17357.16
217.461	17398.03
217.535	17461.02
217.608	17495.24
217.682	17534.99
217.755	17593.31
217.829	17627.91
217.902	17676.49
217.976	17723.71
218.049	17754.17
218.123	17773.88
218.196	17826.07
218.27	17873.78
218.343	17908.53
218.417	17946.7
218.49	17998.12
218.563	18057.63
218.637	18105.1
218.71	18167.7
218.784	18220.95
218.857	18286.87
218.931	18336.37
219.004	18385.71
219.077	18442.19
219.151	18499.44
219.224	18549.85
219.298	18596.35
219.371	18658.23
219.444	18687.14
219.518	18733.65
219.591	18786.94
219.665	18865.98
219.738	18913.49
219.811	18950.98
219.885	19007.8
219.958	19069.29
220.031	19111.94
220.105	19162.87
220.178	19209.81
220.251	19254.48
220.325	19301.32
220.398	19336.94
220.471	19396.55
220.544	19448.06
220.618	19476.78
220.691	19521.98
220.764	19568.1
220.838	19617.21
220.911	19647.23
220.984	19708.34
221.057	19749.25
221.131	19783.32
221.204	19786.45
221.277	19855.41
221.35	19920.81
221.424	19957.82
221.497	20000.33
221.57	20040.23
221.643	20081.43
221.716	20129.09
221.79	20149
221.863	20182.49
221.936	20222.59
222.009	20248.8
222.082	20285.19
222.155	20316.51
222.229	20366.87
222.302	20408.85
222.375	20433.76
222.448	20476.7
222.521	20508.17
222.594	20539.4
222.667	20560.03
222.74	20601.76
222.814	20618.78
222.887	20635.55
222.96	20677.19
223.033	20716.37
223.106	20747.07
223.179	20780.42
223.252	20806.69
223.325	20840.91
223.398	20863.32
223.471	20880.38
223.544	20898.4
223.617	20925.68
223.69	20944.67
223.763	20955.66
223.837	20976.91
223.91	20995.85
223.983	20989.97
224.056	20997.88
224.129	21017.11
224.202	21054.26
224.275	21066.27
224.348	21052.63
224.42	21056.34
224.493	21039.18
224.566	21041.78
224.639	21060.1
224.712	21068.34
224.785	21072.68
224.858	21084.77
224.931	21094.61
225.004	21097.4
225.077	21115.91
225.15	21094.75
225.223	21110.9
225.296	21150.52
225.369	21142.61
225.442	21147.72
225.514	21174.13
225.587	21177.03
225.66	21188.79
225.733	21201.99
225.806	21218.52
225.879	21244.36
225.952	21239.01
226.025	21266.96
226.097	21281.95
226.17	21288.07
226.243	21272.31
226.316	21281.9
226.389	21290.14
226.461	21301.42
226.534	21316.08
226.607	21315.59
226.68	21343.93
226.753	21350.2
226.825	21325.76
226.898	21351.69
226.971	21365.62
227.044	21370.34
227.117	21393.33
227.189	21403.12
227.262	21423.03
227.335	21435.22
227.407	21432.47
227.48	21461.68
227.553	21469.49
227.626	21460.52
227.698	21475.76
227.771	21492.29
227.844	21479.61
227.916	21477.92
227.989	21460.81
228.062	21451.03
228.134	21475.32
228.207	21469.3
228.28	21456.19
228.352	21453.2
228.425	21438.74
228.498	21435.56
228.57	21418.16
228.643	21426.55
228.716	21424.42
228.788	21411.89
228.861	21393.53
228.934	21407.07
229.006	21394.25
229.079	21384.08
229.151	21383.6
229.224	21347.6
229.296	21340.56
229.369	21378.44
229.442	21399.8
229.514	21399.84
229.587	21410.88
229.659	21386.4
229.732	21389.19
229.804	21412.52
229.877	21443.47
229.949	21450.55
230.022	21474.46
230.094	21479.66
230.167	21464.1
230.239	21447.71
230.312	21434.45
230.384	21457.98
230.457	21451.76
230.529	21446.94
230.602	21446.26
230.674	21443.08
230.747	21460.96
230.819	21472.53
230.892	21433.2
230.964	21431.13
231.037	21426.35
231.109	21419.7
231.181	21421.58
231.254	21411.61
231.326	21390.83
231.399	21359.5
231.471	21339.79
231.544	21299.88
231.616	21302
231.688	21295.98
231.761	21282.19
231.833	21264.31
231.905	21221.22
231.978	21207.63
232.05	21187.92
232.122	21183.63
232.195	21164.4
232.267	21174.04
232.339	21143.58
232.412	21138.08
232.484	21100.63
232.556	21080.2
232.629	21077.69
232.701	21072
232.773	21049.45
232.846	21034.84
232.918	21027.42
232.99	21021.3
233.062	21024.82
233.135	21012.29
233.207	20990.65
233.279	20977.25
233.351	20976.91
233.424	20958.41
233.496	20929.63
233.568	20939.61
233.64	20892.14
233.713	20880.62
233.785	20845.97
233.857	20838.69
233.929	20792.28
234.001	20796.66
234.074	20788.37
234.146	20754.3
234.218	20725.72
234.29	20713.72
234.362	20684.95
234.434	20646.54
234.507	20605.53
234.579	20558.25
234.651	20521.04
234.723	20503.5
234.795	20496.08
234.867	20464.61
234.939	20453.14
235.012	20437.62
235.084	20416.46
235.156	20412.8
235.228	20378.2
235.3	20351.55
235.372	20326
235.444	20332.12
235.516	20282.73
235.588	20267.02
235.66	20249.62
235.732	20215.5
235.804	20248.61
235.876	20231.4
235.948	20223.02
236.02	20206.25
236.092	20183.65
236.164	20169.82
236.236	20139.5
236.308	20099.7
236.38	20077.48
236.452	20043.89
236.524	20023.46
236.596	20013.39
236.668	19996.42
236.74	19967.41
236.812	19940.28
236.884	19917
236.956	19884.62
237.028	19845.1
237.1	19802.94
237.172	19790.22
237.244	19790.22
237.316	19711.76
237.388	19681.11
237.46	19641.69
237.532	19629.26
237.604	19598.41
237.675	19583.67
237.747	19566.99
237.819	19528.83
237.891	19495.19
237.963	19460.01
238.035	19420.11
238.107	19346.81
238.178	19323.63
238.25	19293.56
238.322	19281.52
238.394	19236.36
238.466	19199.21
238.538	19184.61
238.609	19167.84
238.681	19120.85
238.753	19064.66
238.825	19035.03
238.897	19006.11
238.968	18987.03
239.04	18945.78
239.112	18937.97
239.184	18884
239.255	18849.4
239.327	18833.16
239.399	18816.15
239.471	18793.69
239.542	18766.85
239.614	18755.28
239.686	18692.3
239.758	18672.49
239.829	18635.68
239.901	18617.61
239.973	18587.73
240.044	18559.68
240.116	18524.94
240.188	18486.29
240.259	18463.49
240.331	18432.17
240.403	18397.04
240.474	18351.6
240.546	18307.89
240.618	18254.59
240.689	18225.67
240.761	18188.9
240.833	18169.34
240.904	18125.29
240.976	18088.28
241.048	18053.73
241.119	18034.02
241.191	18016.19
241.262	18002.31
241.334	17960.77
241.405	17925.06
241.477	17891.57
241.549	17847.09
241.62	17812.73
241.692	17781.11
241.763	17761.64
241.835	17730.66
241.906	17703.04
241.978	17661.16
242.049	17642.66
242.121	17622.22
242.192	17596.83
242.264	17545.4
242.335	17485.21
242.407	17461.45
242.478	17431.38
242.55	17399.23
242.621	17348.63
242.693	17309.55
242.764	17268.92
242.836	17230.9
242.907	17202.61
242.979	17178.32
243.05	17147.57
243.122	17115.09
243.193	17080.39
243.264	17019.86
243.336	16973.4
243.407	16948.14
243.479	16926.41
243.55	16894.21
243.622	16861.54
243.693	16830.74
243.764	16813.73
243.836	16778.16
243.907	16733.58
243.978	16695.6
244.05	16675.6
244.121	16626.78
244.192	16607.3
244.264	16558.87
244.335	16531.2
244.407	16474.19
244.478	16440.64
244.549	16413.99
244.62	16371.53
244.692	16343.43
244.763	16323.91
244.834	16296.82
244.906	16252.58
244.977	16225.06
245.048	16211.37
245.119	16172.04
245.191	16132.71
245.262	16081.42
245.333	16068.41
245.405	16039.3
245.476	16012.79
245.547	15973.27
245.618	15959.72
245.689	15920.97
245.761	15896.34
245.832	15857.88
245.903	15843.37
245.974	15810.98
246.045	15772.03
246.117	15751.21
246.188	15695.2
246.259	15645.17
246.33	15612.83
246.401	15578.84
246.473	15524.86
246.544	15478.59
246.615	15460.13
246.686	15418.72
246.757	15403.1
246.828	15360.25
246.899	15340.97
246.97	15296.92
247.042	15249.58
247.113	15215.94
247.184	15206.68
247.255	15163.2
247.326	15141.75
247.397	15105.89
247.468	15078.66
247.539	15047.42
247.61	15002.45
247.681	14994.49
247.752	14983.31
247.823	14940.41
247.894	14918.48
247.965	14886.52
248.037	14855.67
248.108	14805.87
248.179	14778.06
248.25	14748.7
248.321	14728.02
248.392	14689.07
248.463	14683.58
248.534	14660.25
248.605	14643.52
248.675	14613.54
248.746	14593.05
248.817	14566.1
248.888	14544.07
248.959	14497.51
249.03	14476.59
249.101	14454.08
249.172	14418.69
249.243	14368.56
249.314	14358.48
249.385	14328.79
249.456	14309.65
249.527	14276.2
249.598	14250.94
249.669	14222.59
249.739	14192.75
249.81	14167.25
249.881	14127.77
249.952	14100.1
250.023	14079.47
250.094	14029.24
250.165	13986.43
250.235	13960.79
250.306	13932.01
250.377	13891.85
250.448	13872.81
250.519	13829.13
250.59	13819.49
250.66	13784.4
250.731	13774.28
250.802	13743.81
250.873	13721.54
250.944	13697.63
251.014	13666.92
251.085	13670.58
251.156	13645.56
251.227	13641.76
251.297	13634.57
251.368	13629.03
251.439	13612.11
251.51	13599
251.58	13573.11
251.651	13547.08
251.722	13536.67
251.792	13494.29
251.863	13471.15
251.934	13467.59
252.005	13474.14
252.075	13451.24
252.146	13442.47
252.217	13431.86
252.287	13420.63
252.358	13392.67
252.429	13385.35
252.499	13360.47
252.57	13335.89
252.641	13324.36
252.711	13298.62
252.782	13250.85
252.852	13238.07
252.923	13213.78
252.994	13191.41
253.064	13174.83
253.135	13138.19
253.205	13103.63
253.276	13098.42
253.347	13089.31
253.417	13049.4
253.488	13017.87
253.558	12988.22
253.629	12968.6
253.699	12951.01
253.77	12936.01
253.841	12907.86
253.911	12894.36
253.982	12874.12
254.052	12861.87
254.123	12848.95
254.193	12823.21
254.264	12846.88
254.334	12808.94
254.405	12774.19
254.475	12741.31
254.546	12724.3
254.616	12721.26
254.687	12700.43
254.757	12683.71
254.827	12659.36
254.898	12642.54
254.968	12620.46
255.039	12587.83
255.109	12573.7
255.18	12544.83
255.25	12500.58
255.321	12496.34
255.391	12463.12
255.461	12468.14
255.532	12420.32
255.602	12385.46
255.673	12346.32
255.743	12311.42
255.813	12272.96
255.884	12262.88
255.954	12247.17
256.024	12243.94
256.095	12224.08
256.165	12193.57
256.235	12182.91
256.306	12161.32
256.376	12156.64
256.446	12156.07
256.517	12154.72
256.587	12146.96
256.657	12125.55
256.728	12108.11
256.798	12087.23
256.868	12057.01
256.938	12019.99
257.009	12018.88
257.079	12010.16
257.149	12023.66
257.219	11979.36
257.29	11968.8
257.36	11932.08
257.43	11926.72
257.5	11889.03
257.571	11865.03
257.641	11861.17
257.711	11825.21
257.781	11812.06
257.852	11796.92
257.922	11755.28
257.992	11729.63
258.062	11706.45
258.132	11694.21
258.202	11674.93
258.273	11660.9
258.343	11671.94
258.413	11644.28
258.483	11618.1
258.553	11587.21
258.623	11553.66
258.693	11543.2
258.764	11543.15
258.834	11540.07
258.904	11524.36
258.974	11495.92
259.044	11478.62
259.114	11459.73
259.184	11446.43
259.254	11426.86
259.324	11385.46
259.394	11369.94
259.464	11363.82
259.535	11338.9
259.605	11319
259.675	11288.59
259.745	11268.4
259.815	11227.62
259.885	11214.03
259.955	11235.09
260.025	11207.53
260.095	11191.92
260.165	11181.31
260.235	11176.2
260.305	11144.88
260.375	11110.81
260.445	11119.39
260.515	11115.24
260.585	11105.07
260.655	11088.4
260.725	11083.96
260.795	11077.89
260.865	11087.77
260.934	11064.21
261.004	11057.07
261.074	11037.94
261.144	11038.47
261.214	11036.74
261.284	11020.16
261.354	11016.02
261.424	10974.52
261.494	10985.12
261.564	10968.11
261.634	10959.87
261.703	10922.43
261.773	10923.82
261.843	10914.23
261.913	10890.28
261.983	10856.12
262.053	10847.64
262.123	10829.95
262.192	10796.27
262.262	10791.55
262.332	10753.87
262.402	10745.48
262.472	10729.77
262.541	10690.51
262.611	10692.48
262.681	10664.53
262.751	10662.65
262.821	10638.95
262.89	10608.78
262.96	10592.79
263.03	10596.4
263.1	10581.99
263.169	10571.49
263.239	10559.68
263.309	10563.68
263.379	10554.87
263.448	10543.3
263.518	10535.5
263.588	10523.65
263.657	10531.74
263.727	10524.22
263.797	10506.93
263.867	10490.3
263.936	10461.49
264.006	10467.95
264.076	10448.48
264.145	10428.73
264.215	10392.45
264.285	10389.75
264.354	10360.94
264.424	10344.18
264.494	10306.65
264.563	10284.97
264.633	10292.24
264.702	10279.71
264.772	10244.3
264.842	10230.91
264.911	10224.69
264.981	10192.94
265.05	10177.09
265.12	10155.32
265.19	10139.56
265.259	10144.09
265.329	10140.67
265.398	10132.19
265.468	10144.86
265.537	10125.06
265.607	10122.03
265.676	10132.77
265.746	10119.28
265.815	10119.14
265.885	10097.9
265.955	10079.21
266.024	10060.71
266.094	10021.74
266.163	10024.97
266.232	10032.43
266.302	10018.95
266.371	10008.44
266.441	9993.61
266.51	9993.71
266.58	9975.84
266.649	9956.28
266.719	9947.27
266.788	9935.18
266.858	9941.29
266.927	9903.58
266.996	9897.03
267.066	9884.5
267.135	9856.37
267.205	9852.62
267.274	9842.93
267.343	9847.17
267.413	9838.55
267.482	9849.25
267.552	9853.34
267.621	9818.95
267.69	9783.11
267.76	9768.18
267.829	9758.65
267.898	9756.77
267.968	9730.18
268.037	9728.35
268.106	9724.64
268.176	9697.19
268.245	9683.32
268.314	9666.07
268.384	9664.24
268.453	9649.12
268.522	9640.64
268.592	9647
268.661	9621.23
268.73	9614.88
268.799	9592.77
268.869	9599.9
268.938	9560.12
269.007	9539.89
269.076	9528.1
269.146	9525.83
269.215	9522.51
269.284	9533.68
269.353	9515.82
269.422	9508.55
269.492	9490.39
269.561	9454.61
269.63	9451.63
269.699	9432.46
269.768	9417.72
269.838	9418.16
269.907	9418.83
269.976	9395.96
270.045	9358.93
270.114	9358.4
270.183	9343.28
270.253	9339.14
270.322	9310.87
270.391	9305.72
270.46	9306.59
270.529	9309.67
270.598	9311.88
270.667	9302.54
270.736	9271.77
270.806	9259.83
270.875	9255.3
270.944	9243.75
271.013	9269.56
271.082	9262.29
271.151	9262.14
271.22	9232.29
271.289	9211.83
271.358	9199.07
271.427	9196.32
271.496	9193.63
271.565	9180.39
271.634	9168.93
271.703	9168.4
271.772	9170.28
271.841	9164.84
271.91	9147.26
271.979	9142.64
272.048	9115.58
272.117	9112.21
272.186	9097.77
272.255	9092.38
272.324	9091.85
272.393	9086.6
272.462	9060.07
272.531	9052.37
272.6	9038.74
272.669	9054
272.738	9041.68
272.807	9035.85
272.876	9012.17
272.945	9036.58
273.013	9039.27
273.082	9047.55
273.151	9028.39
273.22	9032.77
273.289	9021.61
273.358	9028.3
273.427	9014.96
273.496	9015.59
273.564	9010.44
273.633	9015.92
273.702	9006.87
273.771	8993.92
273.84	8987.47
273.909	8988.44
273.977	8990.07
274.046	8977.03
274.115	8979.58
274.184	8964.9
274.253	8956.04
274.322	8968.27
274.39	8935.58
274.459	8914.5
274.528	8887.4
274.597	8878.15
274.665	8866.17
274.734	8873.87
274.803	8862.99
274.872	8851.15
274.94	8836.32
275.009	8893.3
275.078	8874
275.147	8870.53
275.215	8867.79
275.284	8879.48
275.353	8866.63
275.421	8838.66
275.49	8859.65
275.559	8841.5
275.627	8835.49
275.696	8827.74
275.765	8824.76
275.833	8818.26
275.902	8820.04
275.971	8833.52
276.039	8851.47
276.108	8853.64
276.177	8850.56
276.245	8834.72
276.314	8834.43
276.383	8850.89
276.451	8783.95
276.52	8791.61
276.588	8802.53
276.657	8810.47
276.725	8797.19
276.794	8802.68
276.863	8812.93
276.931	8786.31
277	8793.72
277.068	8807.05
277.137	8828.42
277.205	8827.56
277.274	8842.19
277.342	8857.93
277.411	8837.33
277.48	8817.79
277.548	8808.6
277.617	8806.38
277.685	8805.08
277.754	8808.88
277.822	8794.64
277.89	8810.72
277.959	8803.98
278.027	8782.08
278.096	8768.46
278.164	8795.56
278.233	8783.91
278.301	8776.45
278.37	8782.52
278.438	8769.42
278.507	8771.93
278.575	8740.35
278.643	8731.35
278.712	8710.85
278.78	8696.21
278.849	8701.75
278.917	8715.18
278.985	8713.2
279.054	8715.03
279.122	8730.58
279.191	8728.22
279.259	8719.22
279.327	8692.79
279.396	8711.04
279.464	8713.78
279.532	8720.42
279.601	8715.61
279.669	8707.62
279.737	8719.84
279.806	8722.78
279.874	8733.37
279.942	8731.35
280.011	8727.16
280.079	8743.24
280.147	8763.59
280.215	8760.27
280.284	8755.41
280.352	8746.41
280.42	8752.19
280.488	8741.31
280.557	8734.04
280.625	8734.04
280.693	8735.2
280.761	8741.5
280.83	8725.33
280.898	8734.71
280.966	8716.14
281.034	8680.32
281.102	8672.82
281.171	8660.88
281.239	8673.25
281.307	8666.66
281.375	8653.18
281.443	8683.26
281.512	8676.62
281.58	8685.77
281.648	8674.27
281.716	8677.11
281.784	8677.73
281.852	8665.65
281.92	8664.5
281.989	8667.87
282.057	8646.45
282.125	8691.12
282.193	8684.77
282.261	8683.61
282.329	8678.08
282.397	8680.87
282.465	8686.98
282.533	8700.31
282.601	8691.17
282.67	8662.14
282.738	8649.3
282.806	8661.52
282.874	8644.33
282.942	8648.86
283.01	8631.67
283.078	8640
283.146	8637.3
283.214	8637.74
283.282	8643.27
283.35	8659.88
283.418	8658.24
283.486	8670.46
283.554	8632.34
283.622	8632.24
283.69	8624.97
283.758	8620.45
283.826	8628.97
283.894	8636.33
283.962	8658.14
284.03	8675.85
284.098	8681.81
284.165	8680.32
284.233	8675.8
284.301	8666.94
284.369	8656.16
284.437	8652.89
284.505	8645.24
284.573	8661.5
284.641	8650.63
284.709	8654.72
284.777	8639.94
284.845	8646.39
284.912	8654.72
284.98	8651.74
285.048	8646.25
285.116	8653.18
285.184	8670.99
285.252	8662.28
285.319	8648.51
285.387	8638.11
285.455	8616.51
285.523	8623.44
285.591	8623.53
285.659	8629.26
285.726	8645.09
285.794	8633.21
285.862	8626.28
285.93	8631.52
285.997	8625.41
286.065	8622.04
286.133	8615.02
286.201	8606.55
286.269	8593.65
286.336	8580.94
286.404	8580.03
286.472	8587.2
286.539	8565.83
286.607	8543.79
286.675	8541.24
286.743	8547.45
286.81	8537.15
286.878	8556.73
286.946	8543.5
287.013	8540.23
287.081	8542.49
287.149	8523.24
287.216	8541
287.284	8540.42
287.352	8540.32
287.419	8532.86
287.487	8548.89
287.555	8553.56
287.622	8552.74
287.69	8554.91
287.758	8566.31
287.825	8566.89
287.893	8556.11
287.96	8566.12
288.028	8580.36
288.096	8587.68
288.163	8594.17
288.231	8584.98
288.298	8577.76
288.366	8596.53
288.433	8592.88
288.501	8580.36
288.569	8587.92
288.636	8582.96
288.704	8599.76
288.771	8606.49
288.839	8602.36
288.906	8594.13
288.974	8600.77
289.041	8603.66
289.109	8593.98
289.176	8597.02
289.244	8601.15
289.311	8617.37
289.379	8628.87
289.446	8635.71
289.514	8639.75
289.581	8636.38
289.649	8638.16
289.716	8645.09
289.783	8634.41
289.851	8656.98
289.918	8654.57
289.986	8664.78
290.053	8672.19
290.121	8667.38
290.188	8667.52
290.255	8692.55
290.323	8686.77
290.39	8684.75
290.458	8684.41
290.525	8700.3
290.592	8698.95
290.66	8692.35
290.727	8681.81
290.794	8690.77
290.862	8681.09
290.929	8676.62
290.996	8677.19
291.064	8686.72
291.131	8694.62
291.198	8706.17
291.266	8703.28
291.333	8707.66
291.4	8714.25
291.468	8724.99
291.535	8721.04
291.602	8724.17
291.669	8719.6
291.737	8729.22
291.804	8727.2
291.871	8752.47
291.938	8756.18
292.006	8785.64
292.073	8801.96
292.14	8816.49
292.207	8810.19
292.275	8812.78
292.342	8823.23
292.409	8852.4
292.476	8878.59
292.543	8873.49
292.611	8872.57
292.678	8891.63
292.745	8915.51
292.812	8918.78
292.879	8911.13
292.946	8918.3
293.014	8936.54
293.081	8941.17
293.148	8953.58
293.215	8970.24
293.282	8962.68
293.349	8971.88
293.416	8949.92
293.484	8964.08
293.551	8972.79
293.618	8996.23
293.685	9021.84
293.752	9020.5
293.819	9014
293.886	9000.13
293.953	9004.46
294.02	9021.55
294.087	9024.97
294.154	9019.87
294.221	9036.05
294.288	9039.18
294.356	9054.58
294.423	9057.13
294.49	9054.2
294.557	9073.26
294.624	9056.32
294.691	9077.6
294.758	9084.1
294.825	9100.95
294.892	9093.63
294.959	9100.27
295.026	9100.61
295.093	9095.99
295.16	9100.42
295.226	9102.82
295.293	9130.51
295.36	9141.73
295.427	9153.57
295.494	9169.99
295.561	9178.7
295.628	9202.11
295.695	9219.68
295.762	9223.87
295.829	9232.54
295.896	9253.34
295.963	9252.42
296.03	9271.44
296.096	9269.51
296.163	9275.68
296.23	9285.59
296.297	9302.25
296.364	9295.8
296.431	9305.53
296.498	9299.12
296.564	9322.72
296.631	9321.37
296.698	9309.33
296.765	9324.88
296.832	9306.25
296.899	9289.35
296.965	9309.33
297.032	9288.48
297.099	9304.75
297.166	9314.87
297.233	9315.4
297.299	9305.86
297.366	9309.38
297.433	9313.85
297.5	9327.72
297.566	9330.52
297.633	9327.15
297.7	9328.69
297.767	9330.61
297.833	9335.09
297.9	9335.86
297.967	9319.44
298.033	9331.53
298.1	9361.15
298.167	9355.22
298.234	9365.67
298.3	9375.64
298.367	9370.58
298.434	9374.34
298.5	9367.11
298.567	9363.26
298.634	9350.69
298.7	9367.31
298.767	9370.48
298.834	9377.85
298.9	9376.26
298.967	9370.39
299.033	9377.8
299.1	9392.35
299.167	9407.13
299.233	9403.52
299.3	9427.45
299.366	9443.34
299.433	9463.23
299.5	9431.3
299.566	9432.79
299.633	9446.28
299.699	9457.74
299.766	9453.79
299.832	9461.64
299.899	9473.15
299.965	9487.6
300.032	9496.17
300.099	9503
300.165	9511.91
300.232	9510.76
300.298	9502.96
300.365	9516.34
300.431	9522.46
300.498	9515.86
300.564	9522.89
300.631	9533.87
300.697	9539.12
300.763	9542.98
300.83	9543.51
300.896	9560.12
300.963	9573.55
301.029	9584.39
301.096	9587.81
301.162	9599.27
301.229	9590.07
301.295	9574.61
301.361	9578.23
301.428	9578.9
301.494	9563.92
301.561	9565.75
301.627	9565.51
301.693	9575.14
301.76	9581.4
301.826	9572.4
301.892	9584.54
301.959	9595.23
302.025	9596.05
302.092	9590.56
302.158	9595.18
302.224	9590.36
302.291	9584.73
302.357	9579.43
302.423	9565.8
302.49	9559.11
302.556	9569.32
302.622	9573.8
302.688	9588.63
302.755	9604.86
302.821	9617.09
302.887	9630.05
302.954	9625.52
303.02	9639.53
303.086	9649.17
303.152	9650.76
303.219	9648.88
303.285	9651.33
303.351	9652.97
303.417	9651.24
303.483	9645.56
303.55	9640.21
303.616	9644.26
303.682	9639.83
303.748	9631.4
303.815	9652.69
303.881	9659.28
303.947	9652.78
304.013	9661.64
304.079	9646.18
304.145	9614.78
304.212	9614.16
304.278	9609.58
304.344	9601.64
304.41	9592.68
304.476	9577.46
304.542	9565.27
304.608	9576.45
304.674	9563.64
304.741	9558.77
304.807	9558.24
304.873	9561.13
304.939	9578.32
305.005	9554.29
305.071	9550.15
305.137	9556.36
305.203	9524.19
305.269	9522.84
305.335	9530.84
305.401	9522.51
305.467	9527.42
305.533	9536.71
305.599	9540.33
305.666	9543.02
305.732	9548.71
305.798	9559.73
305.864	9588.73
305.93	9598.36
305.996	9592.29
306.062	9585.84
306.128	9578.09
306.194	9569.42
306.259	9570.43
306.325	9556.8
306.391	9569.61
306.457	9588.58
306.523	9590.03
306.589	9617.09
306.655	9611.55
306.721	9594.46
306.787	9578.08
306.853	9592.39
306.919	9587.23
306.985	9580.78
307.051	9573.94
307.117	9562.24
307.183	9551.84
307.248	9521.35
307.314	9526.6
307.38	9527.85
307.446	9543.17
307.512	9537.24
307.578	9539.17
307.644	9536.33
307.709	9542.11
307.775	9537.63
307.841	9528.91
307.907	9527.52
307.973	9512.01
308.039	9511.86
308.104	9514.03
308.17	9520.77
308.236	9501.99
308.302	9499.24
308.368	9489.08
308.433	9488.12
308.499	9490.19
308.565	9479.69
308.631	9483.64
308.696	9457.64
308.762	9447.62
308.828	9440.35
308.894	9423.98
308.959	9405.44
309.025	9398.55
309.091	9387.72
309.156	9381.75
309.222	9378.14
309.288	9362.2
309.354	9336.05
309.419	9330.66
309.485	9316.79
309.551	9316.6
309.616	9303.69
309.682	9304.61
309.748	9299.55
309.813	9297.77
309.879	9284.72
309.945	9273.75
310.01	9261.71
310.076	9267.05
310.141	9264.21
310.207	9240.18
310.273	9242.49
310.338	9245.05
310.404	9228.43
310.469	9219.38
310.535	9207.68
310.601	9185
310.666	9197.76
310.732	9210.86
310.797	9199.64
310.863	9186.79
310.928	9184.62
310.994	9186.64
311.059	9177.69
311.125	9172.73
311.191	9179.95
311.256	9172.68
311.322	9178.79
311.387	9163
311.453	9619.94
311.518	9590.62
311.584	9596.83
311.649	9602.08
311.715	9597.5
311.78	9601.55
311.846	9592.5
311.911	9600.73
311.976	9606.99
312.042	9592.21
312.107	9580.12
312.173	9574.63
312.238	9574.35
312.304	9570.4
312.369	9560.67
312.434	9547.1
312.5	9535.3
312.565	9504.34
312.631	9506.8
312.696	9500.2
312.761	9499.14
312.827	9034.22
312.892	9074.51
312.958	9074.47
313.023	9067.92
313.088	9062.53
313.154	9044.33
313.219	9038.31
313.284	9027.86
313.35	9021.56
313.415	9008.42
313.48	9006.01
313.546	9007.4
313.611	9014.05
313.676	8996.81
313.741	8987.09
313.807	8995.27
313.872	9001.34
313.937	9011.3
314.003	9023.58
314.068	9023
314.133	9033.5
314.198	9019.25
314.264	8997.58
314.329	8982.08
314.394	8981.79
314.459	8982.27
314.525	9008.55
314.59	9006.05
314.655	8994.45
314.72	9001.38
314.785	9002.25
314.851	8992.04
314.916	8975.34
314.981	8960.37
315.046	8958.01
315.111	8954.74
315.176	8941.64
315.242	8946.17
315.307	8938.95
315.372	8921.38
315.437	8910.16
315.502	8897.16
315.567	8905.97
315.632	8893.31
315.698	8898.99
315.763	8891.29
315.828	8877.52
315.893	8868.76
315.958	8857.02
316.023	8848.01
316.088	8830.73
316.153	8810.66
316.218	8804.07
316.283	8788.62
316.348	8772.74
316.413	8773.65
316.479	8754.5
316.544	8723.7
316.609	8694.29
316.674	8660.13
316.739	8621.2
316.804	8593.05
316.869	8562.11
316.934	8526.06
316.999	8495.16
317.064	8441.41
317.129	8391.03
317.194	8360.14
317.259	8309.33
317.324	8265.98
317.389	8227.01
317.454	8189.1
317.518	8159.13
317.583	8137.05
317.648	8114.72
317.713	8082.25
317.778	8017.6
317.843	7990.95
317.908	7954.79
317.973	7920.78
318.038	7894.37
318.103	7863.89
318.168	7833.88
318.233	7803.29
318.297	7751.36
318.362	7713.22
318.427	7678.03
318.492	7660.1
318.557	7612.21
318.622	7586.49
318.687	7567.07
318.751	7521.4
318.816	7486.5
318.881	7451.89
318.946	7396.94
319.011	7349.49
319.075	7302.92
319.14	7276.44
319.205	7232.75
319.27	7202.96
319.335	7151.64
319.399	7115.21
319.464	7087.24
319.529	7035.4
319.594	6993.88
319.658	6966.6
319.723	6924.9
319.788	6897.23
319.853	6841.21
319.917	6814.18
319.982	6761.38
320.047	6720.79
320.112	6697.07
320.176	6646.74
320.241	6611.78
320.306	6580.99
320.37	6540.18
320.435	6517.76
320.5	6486.5
320.564	6445.65
320.629	6401.1
320.694	6376.91
320.758	6332.79
320.823	6289.35
320.888	6263.48
320.952	6217.46
321.017	6178.2
321.082	6137.37
321.146	6104.02
321.211	6073.6
321.275	6034.69
321.34	5989.12
321.405	5946.19
321.469	5895.87
321.534	5855.16
321.598	5804.03
321.663	5773.09
321.727	5741.34
321.792	5691.51
321.857	5649.45
321.921	5616.84
321.986	5576.2
322.05	5514.51
322.115	5479.84
322.179	5436.8
322.244	5381.93
322.308	5351.11
322.373	5302.67
322.437	5268.6
322.502	5239.83
322.566	5197.14
322.631	5159.77
322.695	5125.81
322.76	5081.27
322.824	5054.64
322.889	5014.33
322.953	4973.96
323.018	4909.41
323.082	4847.51
323.146	4793.28
323.211	4735.55
323.275	4688.63
323.34	4644.8
323.404	4613.66
323.468	4565.46
323.533	4522.3
323.597	4474.19
323.662	4424.62
323.726	4391.32
323.79	4344.68
323.855	4278.22
323.919	4230.11
323.983	4182.86
324.048	4117.38
324.112	4285.99
324.177	4155.95
324.241	3943.74
324.305	3732.19
324.37	3526.52
324.434	3330.18
324.498	3290.37
324.562	3244.15
324.627	3184.53
324.691	3130.07
324.755	3063.79
324.82	2988.73
324.884	2911.55
324.948	2843.19
325.012	2746.04
325.077	2624.66
