Data from 20250703_urea_0.1M_MAYP1162681_17-41-04-830.txt Node
Date: Thu Jul 03 17:41:04 BST 2025
User: adleo
Spectrometer: MAYP116268
Trigger mode: 0
Integration Time (sec): 1.000000E0
Scans to average: 1
Electric dark correction enabled: true
Nonlinearity correction enabled: true
Boxcar width: 10
XAxis mode: Wavelengths
Number of Pixels in Spectrum: 2068
>>>>>Begin Spectral Data<<<<<
179.565	1331.1
179.642	1396.23
179.718	1445.35
179.795	1489.6
179.871	1525.74
179.948	1543.27
180.024	1568.83
180.101	1594.17
180.177	1610.73
180.254	1637.53
180.33	1662.2
180.407	1730.6
180.483	1836.32
180.56	1935.24
180.636	2029.82
180.712	2014.84
180.789	2029.25
180.865	2042.99
180.942	2049.93
181.018	2061.87
181.095	2078.09
181.171	2081.99
181.248	2081.85
181.324	2099.45
181.4	2106.21
181.477	2119.86
181.553	2136.32
181.63	2156.58
181.706	2172.24
181.782	2180.51
181.859	2176.23
181.935	2181.03
182.011	2173.37
182.088	2192.79
182.164	2214.54
182.24	2225.48
182.317	2238.8
182.393	2235.47
182.469	2252.55
182.546	2268.3
182.622	2275.06
182.698	2267.87
182.775	2280.77
182.851	2298.19
182.927	2287.91
183.003	2282.29
183.08	2273.2
183.156	2283.96
183.232	2280.2
183.308	2271.25
183.385	2281.29
183.461	2303.13
183.537	2304.13
183.613	2316.17
183.69	2301.99
183.766	2287.9
183.842	2298.89
183.918	2300.89
183.995	2319.74
184.071	2323.6
184.147	2317.98
184.223	2303.99
184.299	2317.04
184.375	2306.57
184.452	2311.33
184.528	2363.41
184.604	2375.73
184.68	2388.82
184.756	2395.15
184.832	2402.62
184.908	2404.91
184.985	2403.24
185.061	2384.92
185.137	2397.44
185.213	2386.16
185.289	2390.44
185.365	2386.02
185.441	2385.97
185.517	2399.82
185.593	2390.3
185.669	2387.87
185.745	2398.2
185.822	2418.71
185.898	2409.86
185.974	2420.99
186.05	2410.71
186.126	2376.2
186.202	2371.15
186.278	2365.96
186.354	2355.92
186.43	2359.87
186.506	2359.78
186.582	2360.06
186.658	2368.15
186.734	2344.07
186.81	2347.73
186.886	2349.49
186.962	2361.87
187.038	2356.54
187.114	2347.35
187.19	2356.01
187.266	2345.54
187.341	2344.92
187.417	2333.88
187.493	2332.4
187.569	2332.97
187.645	2328.88
187.721	2316.27
187.797	2320.79
187.873	2327.93
187.949	2321.74
188.025	2314.27
188.101	2316.31
188.176	2322.64
188.252	2316.03
188.328	2324.73
188.404	2325.07
188.48	2320.21
188.556	2312.26
188.632	2312.03
188.707	2315.02
188.783	2313.02
188.859	2308.36
188.935	2297.03
189.011	2305.31
189.086	2300.56
189.162	2295.61
189.238	2292.85
189.314	2292.51
189.39	2286.42
189.465	2276.52
189.541	2296.23
189.617	2281.62
189.693	2276.01
189.768	2277.58
189.844	2304.43
189.92	2297.82
189.996	2306.15
190.071	2316.95
190.147	2315.71
190.223	2326.8
190.298	2318.24
190.374	2304.29
190.45	2315.52
190.526	2327.75
190.601	2323.99
190.677	2324.75
190.753	2351.9
190.828	2358.47
190.904	2373.28
190.98	2391.41
191.055	2405.17
191.131	2395.6
191.207	2417.83
191.282	2427.11
191.358	2415.68
191.433	2399.21
191.509	2410.86
191.585	2409.29
191.66	2413.62
191.736	2425
191.811	2412.81
191.887	2430.58
191.963	2456.62
192.038	2460.14
192.114	2457.19
192.189	2462.04
192.265	2460.05
192.34	2435.32
192.416	2431.04
192.491	2425.85
192.567	2429.28
192.642	2431.61
192.718	2429.71
192.793	2417.76
192.869	2415.43
192.944	2419.47
193.02	2431.47
193.095	2435.28
193.171	2439.66
193.246	2436.47
193.322	2433.18
193.397	2434.95
193.473	2421.18
193.548	2396.23
193.624	2403.9
193.699	2403.33
193.775	2419.76
193.85	2421.57
193.925	2434.09
194.001	2433.42
194.076	2428.52
194.152	2413.33
194.227	2404.24
194.302	2395.05
194.378	2397.67
194.453	2396.39
194.529	2409.1
194.604	2391.29
194.679	2385.2
194.755	2364.45
194.83	2377.83
194.905	2377.36
194.981	2386.21
195.056	2380.4
195.131	2389.78
195.207	2387.16
195.282	2376.98
195.357	2356.64
195.433	2370.87
195.508	2356.68
195.583	2364.73
195.659	2374.58
195.734	2386.11
195.809	2386.3
195.884	2397.29
195.96	2399.48
196.035	2415.9
196.11	2413.81
196.185	2428.9
196.261	2437.04
196.336	2470.55
196.411	2457.69
196.486	2461.84
196.561	2457.6
196.637	2461.41
196.712	2479.17
196.787	2482.7
196.862	2500.74
196.937	2511.74
197.013	2520.26
197.088	2529.69
197.163	2554.27
197.238	2578.1
197.313	2575.43
197.388	2590.39
197.464	2623.88
197.539	2633.74
197.614	2625.17
197.689	2638.6
197.764	2655.09
197.839	2672.95
197.914	2665.9
197.989	2687.57
198.065	2703.25
198.14	2755.07
198.215	2786.61
198.29	2800
198.365	2817.21
198.44	2827.88
198.515	2857.14
198.59	2875.06
198.665	2903.66
198.74	2909.28
198.815	2907.57
198.89	2935.4
198.965	2966.97
199.04	2959.34
199.115	2976.21
199.19	3021.11
199.265	3020.87
199.34	3032.46
199.415	3070.33
199.49	3097.7
199.565	3110.28
199.64	3135.08
199.715	3132.98
199.79	3144.1
199.865	3151.06
199.94	3147.82
200.015	3180.63
200.09	3187.12
200.165	3195.13
200.24	3206.78
200.315	3253.52
200.39	3269.78
200.464	3277.18
200.539	3279.28
200.614	3298.16
200.689	3327.98
200.764	3338.96
200.839	3364.33
200.914	3369.96
200.989	3356.79
201.063	3372.63
201.138	3354.27
201.213	3352.22
201.288	3331.71
201.363	3332.38
201.438	3334.67
201.512	3354.17
201.587	3336.61
201.662	3341.05
201.737	3351.07
201.812	3357.85
201.886	3320.79
201.961	3332.11
202.036	3318.61
202.111	3315.55
202.186	3287.28
202.26	3269
202.335	3239.8
202.41	3232.16
202.485	3213.95
202.559	3194.34
202.634	3164.48
202.709	3177.92
202.784	3165.67
202.858	3171.48
202.933	3159.18
203.008	3153.6
203.082	3133.52
203.157	3140.68
203.232	3102.72
203.306	3088.03
203.381	3062.79
203.456	3048.01
203.53	3033.45
203.605	3023.82
203.68	3011.32
203.754	3017.09
203.829	3013.56
203.904	3013.22
203.978	3020.33
204.053	3043.75
204.127	3052
204.202	3072.41
204.277	3075.8
204.351	3091.73
204.426	3108.38
204.5	3127.89
204.575	3123.89
204.65	3170.9
204.724	3195.53
204.799	3236.78
204.873	3272.15
204.948	3309.04
205.022	3344.4
205.097	3383.57
205.171	3446.52
205.246	3506.89
205.32	3556.14
205.395	3613.75
205.469	3662.39
205.544	3727.24
205.618	3777.32
205.693	3858.36
205.767	3920.44
205.842	4015.14
205.916	4084.07
205.991	4153.31
206.065	4233.65
206.14	4339.2
206.214	4420.81
206.289	4509.36
206.363	4620.05
206.438	4720.84
206.512	4829.43
206.586	4948.71
206.661	5060.26
206.735	5146.61
206.81	5258.58
206.884	5397.11
206.958	5500.97
207.033	5639.48
207.107	5768.72
207.181	5922.57
207.256	6044.39
207.33	6191.84
207.405	6344.31
207.479	6503.98
207.553	6650.35
207.628	6777.56
207.702	6925.44
207.776	7062.36
207.851	7210.89
207.925	7376.68
207.999	7519.15
208.073	7664.52
208.148	7816.61
208.222	7959.21
208.296	8149.01
208.371	8324.15
208.445	8493.43
208.519	8683.29
208.593	8859.96
208.668	9015.68
208.742	9184.25
208.816	9351.63
208.89	9529.18
208.965	9690.77
209.039	9855.35
209.113	10036.15
209.187	10228.93
209.261	10389.28
209.336	10576.73
209.41	10760
209.484	10924.41
209.558	11117.83
209.632	11301.61
209.707	11487.14
209.781	11675.08
209.855	11858.28
209.929	12037.92
210.003	12202.13
210.077	12362.35
210.151	12575.3
210.226	12777.6
210.3	12966.56
210.374	13150.94
210.448	13317.82
210.522	13481.76
210.596	13663.01
210.67	13828.4
210.744	14036.21
210.818	14226.43
210.892	14410.85
210.966	14562.17
211.041	14737.2
211.115	14884.27
211.189	15054.57
211.263	15218.02
211.337	15378.49
211.411	15544.11
211.485	15690.92
211.559	15855.1
211.633	16014.11
211.707	16130.7
211.781	16281.12
211.855	16380.99
211.929	16512.14
212.003	16637.64
212.077	16791.58
212.151	16927.3
212.225	17073.52
212.299	17194.39
212.373	17319.74
212.447	17440.51
212.52	17601.19
212.594	17727.65
212.668	17872.76
212.742	17994.97
212.816	18114.2
212.89	18223.3
212.964	18340.45
213.038	18467.48
213.112	18594.13
213.186	18713.35
213.26	18799.61
213.333	18861.92
213.407	18999.6
213.481	19119.98
213.555	19241.23
213.629	19338.24
213.703	19442.23
213.777	19563.82
213.85	19643.38
213.924	19791.14
213.998	19897.02
214.072	19988.44
214.146	20074.17
214.219	20165.45
214.293	20257.49
214.367	20364.63
214.441	20474.65
214.515	20555.76
214.588	20620.68
214.662	20676.63
214.736	20748.58
214.81	20852.1
214.883	20954.61
214.957	21014.71
215.031	21081.36
215.105	21134.95
215.178	21201.95
215.252	21273.28
215.326	21318.49
215.4	21372.37
215.473	21392.67
215.547	21446.07
215.621	21505.6
215.694	21583.59
215.768	21627.41
215.842	21682.74
215.915	21736.15
215.989	21784.07
216.063	21844.66
216.136	21904.19
216.21	21974.23
216.284	22063.6
216.357	22120.25
216.431	22173.22
216.504	22240.86
216.578	22327.29
216.652	22396.23
216.725	22453.36
216.799	22510
216.873	22558.5
216.946	22630.43
217.02	22682.69
217.093	22735.62
217.167	22767.01
217.24	22804.47
217.314	22850.95
217.387	22897.86
217.461	22935.18
217.535	23000.51
217.608	23032.14
217.682	23094.49
217.755	23150.13
217.829	23175.16
217.902	23229.65
217.976	23282.6
218.049	23321.89
218.123	23352.81
218.196	23402.86
218.27	23440.91
218.343	23476.79
218.417	23530.41
218.49	23568.41
218.563	23626.19
218.637	23665.39
218.71	23729.44
218.784	23767.73
218.857	23822.47
218.931	23852.9
219.004	23889.89
219.077	23929.05
219.151	23977.38
219.224	23992.19
219.298	24020.84
219.371	24068.98
219.444	24079.83
219.518	24109.3
219.591	24142.87
219.665	24201.19
219.738	24226.56
219.811	24254.3
219.885	24288.06
219.958	24327.28
220.031	24362.45
220.105	24391.05
220.178	24424.29
220.251	24445.66
220.325	24488.79
220.398	24523.28
220.471	24572.1
220.544	24612.87
220.618	24621.21
220.691	24643.94
220.764	24688.95
220.838	24724.12
220.911	24742.89
220.984	24801.12
221.057	24830.16
221.131	24838.55
221.204	24822.49
221.277	24862.1
221.35	24916.91
221.424	24933.17
221.497	24950.06
221.57	24963.66
221.643	24988.13
221.716	25009.12
221.79	25015.73
221.863	25030.35
221.936	25038.74
222.009	25035.7
222.082	25039.47
222.155	25057.46
222.229	25085.16
222.302	25093.22
222.375	25101.66
222.448	25116.05
222.521	25105.53
222.594	25110.83
222.667	25128.68
222.74	25152.86
222.814	25161.54
222.887	25149.09
222.96	25175.3
223.033	25189.53
223.106	25192.52
223.179	25200.44
223.252	25207.97
223.325	25210.67
223.398	25205.89
223.471	25213.03
223.544	25218.82
223.617	25236.39
223.69	25238.27
223.763	25224.61
223.837	25223.31
223.91	25232.58
223.983	25211.39
224.056	25200.63
224.129	25205.6
224.202	25215.83
224.275	25207.19
224.348	25196.05
224.42	25179.3
224.493	25149.39
224.566	25136.11
224.639	25146.25
224.712	25128.68
224.785	25115.41
224.858	25105.76
224.931	25090.85
225.004	25059.2
225.077	25058.09
225.15	25007.57
225.223	24991.12
225.296	25009.65
225.369	24983.45
225.442	24954.5
225.514	24946.73
225.587	24939.44
225.66	24918.65
225.733	24906.39
225.806	24894.52
225.879	24879.57
225.952	24855.93
226.025	24862.63
226.097	24854.14
226.17	24833.73
226.243	24792.29
226.316	24779.36
226.389	24772.55
226.461	24757.79
226.534	24757.36
226.607	24734.44
226.68	24754.56
226.753	24736.18
226.825	24685.27
226.898	24675.05
226.971	24660.09
227.044	24645.71
227.117	24639.15
227.189	24646.29
227.262	24633.02
227.335	24623.66
227.407	24596.46
227.48	24586.95
227.553	24564.42
227.626	24538.85
227.698	24520.76
227.771	24513.67
227.844	24477.88
227.916	24461.09
227.989	24435.67
228.062	24418.11
228.134	24434.27
228.207	24408.17
228.28	24378.84
228.352	24362.49
228.425	24343.44
228.498	24332.44
228.57	24303.88
228.643	24298.38
228.716	24251.4
228.788	24233.5
228.861	24202.53
228.934	24190.48
229.006	24168.24
229.079	24144.65
229.151	24114.99
229.224	24079.15
229.296	24065.21
229.369	24073.99
229.442	24057.3
229.514	24025.18
229.587	24010.18
229.659	23957.85
229.732	23937.73
229.804	23929.87
229.877	23927.8
229.949	23924.86
230.022	23916.13
230.094	23902.43
230.167	23871.99
230.239	23850.1
230.312	23811.27
230.384	23808.43
230.457	23795.21
230.529	23782.72
230.602	23765.99
230.674	23750.36
230.747	23738.11
230.819	23720.56
230.892	23661.96
230.964	23647.78
231.037	23636.45
231.109	23608.87
231.181	23589.92
231.254	23554.47
231.326	23524.57
231.399	23501.33
231.471	23471.04
231.544	23422.91
231.616	23403.19
231.688	23381.39
231.761	23340.07
231.833	23316.83
231.905	23265.09
231.978	23235.28
232.05	23201.15
232.122	23165.51
232.195	23141.16
232.267	23130.65
232.339	23104.46
232.412	23099.21
232.484	23050.7
232.556	23014.59
232.629	23022.16
232.701	23009.14
232.773	22979.54
232.846	22950.32
232.918	22927.37
232.99	22906.59
233.062	22891.35
233.135	22865.36
233.207	22814.16
233.279	22803.12
233.351	22775.64
233.424	22740.54
233.496	22710.5
233.568	22702.45
233.64	22659.02
233.713	22629.61
233.785	22580.67
233.857	22558.16
233.929	22508.93
234.001	22507.87
234.074	22496.83
234.146	22428.95
234.218	22386
234.29	22354.9
234.362	22321.54
234.434	22264.85
234.507	22204.06
234.579	22154.55
234.651	22112.66
234.723	22096.8
234.795	22066.34
234.867	22028.5
234.939	22013.12
235.012	21980.1
235.084	21942.64
235.156	21916.85
235.228	21869.56
235.3	21836.93
235.372	21801.74
235.444	21784.39
235.516	21727.75
235.588	21696.03
235.66	21667.83
235.732	21621.42
235.804	21651.21
235.876	21623.93
235.948	21597.9
236.02	21563.53
236.092	21525.84
236.164	21489.21
236.236	21444
236.308	21404.33
236.38	21372.96
236.452	21330.11
236.524	21278.01
236.596	21262
236.668	21241.28
236.74	21204.65
236.812	21177.66
236.884	21144.21
236.956	21108.21
237.028	21063.96
237.1	21011.53
237.172	20988.63
237.244	20972.92
237.316	20886.45
237.388	20832.76
237.46	20788.76
237.532	20768.57
237.604	20731.22
237.675	20711.55
237.747	20688.52
237.819	20645.77
237.891	20608.85
237.963	20565.14
238.035	20532.61
238.107	20458.87
238.178	20438.87
238.25	20397.77
238.322	20387.89
238.394	20327.31
238.466	20279.98
238.538	20242.44
238.609	20206.88
238.681	20142.3
238.753	20089.14
238.825	20061.14
238.897	20033.68
238.968	20018.98
239.04	19980.95
239.112	19962.01
239.184	19904.23
239.255	19860.04
239.327	19831.32
239.399	19798.55
239.471	19770.6
239.542	19740.29
239.614	19715.52
239.686	19636.68
239.758	19610.66
239.829	19554.13
239.901	19533.21
239.973	19498.52
240.044	19480.25
240.116	19449.99
240.188	19417.27
240.259	19377.94
240.331	19322
240.403	19300.94
240.474	19237.47
240.546	19183.74
240.618	19130.78
240.689	19099.12
240.761	19057.82
240.833	19034.45
240.904	18996.81
240.976	18954.65
241.048	18922.31
241.119	18892.62
241.191	18859.33
241.262	18850.46
241.334	18807.62
241.405	18765.84
241.477	18724.39
241.549	18676.11
241.62	18646.66
241.692	18616.5
241.763	18600.35
241.835	18562.38
241.906	18518.29
241.978	18474.24
242.049	18454.92
242.121	18429.86
242.192	18402.68
242.264	18347.07
242.335	18291.65
242.407	18252.42
242.478	18213.1
242.55	18175.36
242.621	18115.08
242.693	18081.15
242.764	18019.56
242.836	17975.95
242.907	17946.55
242.979	17922.84
243.05	17882.36
243.122	17839.91
243.193	17799.33
243.264	17737.26
243.336	17712.2
243.407	17681.89
243.479	17661.11
243.55	17622.85
243.622	17594.47
243.693	17560.92
243.764	17552.3
243.836	17508.68
243.907	17468.39
243.978	17430.85
244.05	17401.65
244.121	17357.93
244.192	17331.19
244.264	17282.99
244.335	17242.7
244.407	17189.98
244.478	17151.52
244.549	17112.05
244.62	17069.3
244.692	17031.85
244.763	17002.31
244.834	16958.07
244.906	16910.21
244.977	16887.95
245.048	16872.96
245.119	16817.92
245.191	16760.23
245.262	16694.59
245.333	16683.84
245.405	16654.1
245.476	16620.56
245.547	16586
245.618	16566.82
245.689	16527.35
245.761	16494.91
245.832	16460.59
245.903	16435.97
245.974	16397.6
246.045	16372.2
246.117	16357.02
246.188	16313.79
246.259	16267.61
246.33	16232.23
246.401	16201.68
246.473	16142.15
246.544	16097.62
246.615	16077.91
246.686	16049.32
246.757	16035.44
246.828	15980.74
246.899	15965.75
246.97	15914.99
247.042	15870.55
247.113	15843.9
247.184	15835.85
247.255	15795.26
247.326	15773.82
247.397	15734.29
247.468	15709.18
247.539	15678.86
247.61	15627
247.681	15611.62
247.752	15605.55
247.823	15560.38
247.894	15535.71
247.965	15494.69
248.037	15451.02
248.108	15400.21
248.179	15369.65
248.25	15334.75
248.321	15315.42
248.392	15266.5
248.463	15265.82
248.534	15233.1
248.605	15210.34
248.675	15176.31
248.746	15161.28
248.817	15131.44
248.888	15113.17
248.959	15062.51
249.03	15038.07
249.101	15012.43
249.172	14969.19
249.243	14913.22
249.314	14902.09
249.385	14869.45
249.456	14858.27
249.527	14831.56
249.598	14808.91
249.669	14779.65
249.739	14756.7
249.81	14726.43
249.881	14689.12
249.952	14654.61
250.023	14629.35
250.094	14581.38
250.165	14539.16
250.235	14504.59
250.306	14483.67
250.377	14446.03
250.448	14432.14
250.519	14379.89
250.59	14370.44
250.66	14334.43
250.731	14322.76
250.802	14293.36
250.873	14269.3
250.944	14242.6
251.014	14205
251.085	14208.42
251.156	14191.21
251.227	14179.02
251.297	14170.53
251.368	14157.66
251.439	14143.63
251.51	14132.45
251.58	14096.29
251.651	14057.15
251.722	14045.68
251.792	13997.33
251.863	13968.88
251.934	13955.63
252.005	13959.24
252.075	13929.89
252.146	13921.35
252.217	13914.03
252.287	13900.48
252.358	13873.48
252.429	13873
252.499	13853.33
252.57	13824.56
252.641	13810.96
252.711	13784.5
252.782	13737.64
252.852	13733.64
252.923	13707.17
252.994	13682.39
253.064	13676.18
253.135	13657.28
253.205	13632.74
253.276	13627.58
253.347	13626.81
253.417	13592.49
253.488	13563.28
253.558	13535.56
253.629	13510.59
253.699	13487.16
253.77	13473.42
253.841	13447.29
253.911	13426.47
253.982	13402.27
254.052	13389.2
254.123	13366.21
254.193	13337.09
254.264	13358.2
254.334	13322.72
254.405	13290.43
254.475	13253.93
254.546	13223.47
254.616	13218.94
254.687	13195.85
254.757	13179.55
254.827	13148.7
254.898	13132.74
254.968	13106.37
255.039	13077.31
255.109	13071.91
255.18	13034.69
255.25	12989.33
255.321	12974.72
255.391	12920.44
255.461	12921.5
255.532	12871.23
255.602	12839.51
255.673	12803.11
255.743	12766.19
255.813	12721.31
255.884	12715.96
255.954	12704.15
256.024	12710.75
256.095	12690.84
256.165	12661
256.235	12645
256.306	12618.15
256.376	12614.68
256.446	12607.98
256.517	12588.94
256.587	12573.27
256.657	12566.81
256.728	12556.25
256.798	12540.68
256.868	12527.38
256.938	12496.24
257.009	12494.55
257.079	12486.21
257.149	12502.65
257.219	12464.71
257.29	12448.32
257.36	12401.33
257.43	12392.65
257.5	12345.7
257.571	12313.35
257.641	12305.98
257.711	12272.62
257.781	12256.28
257.852	12238.06
257.922	12198.77
257.992	12183.49
258.062	12161.22
258.132	12143.92
258.202	12112.93
258.273	12092.01
258.343	12097.07
258.413	12070.22
258.483	12046.46
258.553	12017.1
258.623	11979.21
258.693	11963.55
258.764	11964.03
258.834	11966.73
258.904	11946.34
258.974	11926.29
259.044	11900.6
259.114	11882.14
259.184	11869.22
259.254	11853.27
259.324	11809.11
259.394	11794.99
259.464	11796.29
259.535	11774.02
259.605	11748.43
259.675	11726.93
259.745	11714.98
259.815	11680.95
259.885	11656.52
259.955	11664.61
260.025	11635.07
260.095	11621.43
260.165	11606.54
260.235	11605.57
260.305	11572.99
260.375	11542
260.445	11543.3
260.515	11549.57
260.585	11542.24
260.655	11520.36
260.725	11516.7
260.795	11509.32
260.865	11513.85
260.934	11479.97
261.004	11466.62
261.074	11452.26
261.144	11456.35
261.214	11446.28
261.284	11424.55
261.354	11417.27
261.424	11390.32
261.494	11394.32
261.564	11370.42
261.634	11365.07
261.703	11326.18
261.773	11322.13
261.843	11315.62
261.913	11300.97
261.983	11267.38
262.053	11258.46
262.123	11241.6
262.192	11204.2
262.262	11195.86
262.332	11165.64
262.402	11159.96
262.472	11153.26
262.541	11116.2
262.611	11110.42
262.681	11084.3
262.751	11082.47
262.821	11070.61
262.89	11037.46
262.96	11026.95
263.03	11037.55
263.1	11030.8
263.169	11020.73
263.239	11004.35
263.309	11006.61
263.379	10992.64
263.448	10976.11
263.518	10962.23
263.588	10950.28
263.657	10958.18
263.727	10958.91
263.797	10943.87
263.867	10925.46
263.936	10890.62
264.006	10894.05
264.076	10869.42
264.145	10852.94
264.215	10824.22
264.285	10816.61
264.354	10785.63
264.424	10765.05
264.494	10733.54
264.563	10709.34
264.633	10709.25
264.702	10705.73
264.772	10665.64
264.842	10652.87
264.911	10647.62
264.981	10615.04
265.05	10594.86
265.12	10569.66
265.19	10558.96
265.259	10555.92
265.329	10548.79
265.398	10539.16
265.468	10550.43
265.537	10533.47
265.607	10527.5
265.676	10526.19
265.746	10517.57
265.815	10512.99
265.885	10497.38
265.955	10473.92
266.024	10449.25
266.094	10406.86
266.163	10404.21
266.232	10414.03
266.302	10393.41
266.371	10386.33
266.441	10376.5
266.51	10379.01
266.58	10363.88
266.649	10330.59
266.719	10326.2
266.788	10322.93
266.858	10327.41
266.927	10283.42
266.996	10274.89
267.066	10262.9
267.135	10236.54
267.205	10229.22
267.274	10217.08
267.343	10214.91
267.413	10201.38
267.482	10205.28
267.552	10219.06
267.621	10190.49
267.69	10156.14
267.76	10147.71
267.829	10137.06
267.898	10124.44
267.968	10096.31
268.037	10092.46
268.106	10091.73
268.176	10060.42
268.245	10039.61
268.314	10019.66
268.384	10026.74
268.453	10014.56
268.522	10003.48
268.592	10006.56
268.661	9982.33
268.73	9979.44
268.799	9962.39
268.869	9973.27
268.938	9944.47
269.007	9924.72
269.076	9917.73
269.146	9913.16
269.215	9911.86
269.284	9911.95
269.353	9895.82
269.422	9889.94
269.492	9874.63
269.561	9829.79
269.63	9832.15
269.699	9813.41
269.768	9802.04
269.838	9787.88
269.907	9788.41
269.976	9766.64
270.045	9733.46
270.114	9733.17
270.183	9719.63
270.253	9713.9
270.322	9681.87
270.391	9670.51
270.46	9670.94
270.529	9664.3
270.598	9662.27
270.667	9645.99
270.736	9626.24
270.806	9617.29
270.875	9618.15
270.944	9603.18
271.013	9632.94
271.082	9621.24
271.151	9618.83
271.22	9592.01
271.289	9583.38
271.358	9560.07
271.427	9555.45
271.496	9546.21
271.565	9529.3
271.634	9516.64
271.703	9544
271.772	9542.12
271.841	9535.57
271.91	9510.1
271.979	9502.29
272.048	9484.38
272.117	9480.43
272.186	9462.66
272.255	9464.64
272.324	9457.51
272.393	9453.32
272.462	9430.83
272.531	9422.06
272.6	9408.58
272.669	9420.13
272.738	9406.6
272.807	9403.38
272.876	9377.67
272.945	9411.71
273.013	9417.88
273.082	9429.29
273.151	9378.04
273.22	9378.91
273.289	9371.78
273.358	9381.03
273.427	9364.42
273.496	9359.84
273.564	9354.35
273.633	9358.3
273.702	9339.52
273.771	9332.68
273.84	9329.75
273.909	9336.92
273.977	9341.35
274.046	9327.58
274.115	9332.5
274.184	9311.36
274.253	9304.62
274.322	9323.3
274.39	9282.56
274.459	9261.71
274.528	9230.95
274.597	9227.48
274.665	9216.31
274.734	9222.95
274.803	9211.16
274.872	9202.92
274.94	9189.54
275.009	9223.69
275.078	9204.09
275.147	9200.53
275.215	9195.76
275.284	9202.41
275.353	9183.34
275.421	9150.74
275.49	9170.1
275.559	9152.33
275.627	9155.89
275.696	9150.26
275.765	9147.27
275.833	9142.99
275.902	9142.12
275.971	9153.63
276.039	9162.92
276.108	9171.35
276.177	9166.58
276.245	9156.95
276.314	9158.78
276.383	9166.68
276.451	9123.81
276.52	9129.83
276.588	9143.94
276.657	9149.19
276.725	9141.43
276.794	9137.87
276.863	9146.58
276.931	9121.64
277	9130.36
277.068	9141.24
277.137	9156.74
277.205	9153.85
277.274	9177.88
277.342	9184.96
277.411	9162.76
277.48	9153.66
277.548	9142.01
277.617	9142.01
277.685	9137.15
277.754	9138.45
277.822	9127.52
277.89	9140.52
277.959	9133.25
278.027	9113.18
278.096	9095.65
278.164	9119.2
278.233	9111.06
278.301	9099.27
278.37	9104.66
278.438	9090.51
278.507	9085.45
278.575	9056.95
278.643	9053.24
278.712	9026.09
278.78	9015.74
278.849	9030.9
278.917	9041.54
278.985	9035.04
279.054	9038.03
279.122	9047.22
279.191	9050.06
279.259	9048.09
279.327	9026.71
279.396	9048.52
279.464	9043.23
279.532	9050.11
279.601	9036.77
279.669	9037.64
279.737	9055.74
279.806	9064.07
279.874	9074.18
279.942	9076.25
280.011	9074.13
280.079	9081.45
280.147	9098.44
280.215	9104.46
280.284	9094.93
280.352	9076.39
280.42	9085.16
280.488	9074.37
280.557	9069.27
280.625	9066.76
280.693	9067.53
280.761	9072.16
280.83	9049.62
280.898	9068.64
280.966	9049.58
281.034	9016.02
281.102	8996.34
281.171	8985.79
281.239	8990.46
281.307	8982.23
281.375	8968.61
281.443	8998.02
281.512	8990.85
281.58	9003.17
281.648	8984.21
281.716	8985.8
281.784	8983
281.852	8976.65
281.92	8975.97
281.989	8988.73
282.057	8973.76
282.125	9027.65
282.193	9016.72
282.261	9016.09
282.329	9004.92
282.397	9012.87
282.465	9020.57
282.533	9040.54
282.601	9031.06
282.67	9009.83
282.738	8998.9
282.806	9010.26
282.874	8987.63
282.942	8993.89
283.01	8982.87
283.078	8985.37
283.146	8979.45
283.214	8991.58
283.282	8994.13
283.35	9009.59
283.418	9001.69
283.486	9008.53
283.554	8953.82
283.622	8956.52
283.69	8955.46
283.758	8950.02
283.826	8952.23
283.894	8965.71
283.962	8986.17
284.03	9005.72
284.098	9010.15
284.165	9004.13
284.233	9001.63
284.301	9000.09
284.369	8988.15
284.437	8981.7
284.505	8978.28
284.573	8999.94
284.641	8986.22
284.709	8992.62
284.777	8975
284.845	8977.75
284.912	8978.61
284.98	8983.91
285.048	8981.17
285.116	8989.3
285.184	9004.61
285.252	9004.32
285.319	8985.88
285.387	8977.36
285.455	8959.84
285.523	8965.62
285.591	8966.82
285.659	8964.89
285.726	8973.46
285.794	8960.9
285.862	8955.75
285.93	8959.5
285.997	8949.3
286.065	8938.13
286.133	8927.88
286.201	8920.8
286.269	8910.69
286.336	8909.73
286.404	8899.91
286.472	8906.07
286.539	8882.48
286.607	8862.31
286.675	8860.96
286.743	8869.1
286.81	8863.61
286.878	8876.7
286.946	8869.29
287.013	8868.81
287.081	8871.46
287.149	8863.75
287.216	8880.84
287.284	8874.54
287.352	8877.23
287.419	8876.8
287.487	8900.39
287.555	8907.32
287.622	8904.72
287.69	8907.13
287.758	8913.82
287.825	8909.49
287.893	8893.79
287.96	8902.51
288.028	8914.06
288.096	8912.37
288.163	8918.05
288.231	8902.02
288.298	8900.05
288.366	8912.71
288.433	8907.03
288.501	8902.56
288.569	8900.87
288.636	8894.71
288.704	8912.23
288.771	8918.1
288.839	8904.82
288.906	8898.85
288.974	8908
289.041	8906.07
289.109	8896.88
289.176	8905.3
289.244	8913.2
289.311	8932.36
289.379	8946.03
289.446	8950.02
289.514	8952.72
289.581	8951.95
289.649	8951.61
289.716	8954.12
289.783	8940.54
289.851	8964.75
289.918	8966.1
289.986	8975.34
290.053	8978.86
290.121	8980.44
290.188	8984.44
290.255	9014.72
290.323	9008.32
290.39	9000.47
290.458	9011.16
290.525	9028.82
290.592	9022.03
290.66	9023
290.727	9016.26
290.794	9025.36
290.862	9024.35
290.929	9031.81
290.996	9029.16
291.064	9047.98
291.131	9054.77
291.198	9068.78
291.266	9066.71
291.333	9066.66
291.4	9074.17
291.468	9091.36
291.535	9080.43
291.602	9085.2
291.669	9078.51
291.737	9086.3
291.804	9087.17
291.871	9099.78
291.938	9103.3
292.006	9132.34
292.073	9146.88
292.14	9161.08
292.207	9154.67
292.275	9158.77
292.342	9170.66
292.409	9198.2
292.476	9220.64
292.543	9211.83
292.611	9216.31
292.678	9235.57
292.745	9261.33
292.812	9271.53
292.879	9271.49
292.946	9283.47
293.014	9292.96
293.081	9304.47
293.148	9312.07
293.215	9332.49
293.282	9329.46
293.349	9338.03
293.416	9317.8
293.484	9331.82
293.551	9340.24
293.618	9359.84
293.685	9387.09
293.752	9376.12
293.819	9375.49
293.886	9356.81
293.953	9365.57
294.02	9375.78
294.087	9377.37
294.154	9372.84
294.221	9390.9
294.288	9385.8
294.356	9402.36
294.423	9414.4
294.49	9403.37
294.557	9415.36
294.624	9402.65
294.691	9426.78
294.758	9428.9
294.825	9433.95
294.892	9429.81
294.959	9428.12
295.026	9430.92
295.093	9411.94
295.16	9415.46
295.226	9414.35
295.293	9445.65
295.36	9453.02
295.427	9461.26
295.494	9479.37
295.561	9482.16
295.628	9502.58
295.695	9525.12
295.762	9524.64
295.829	9524.4
295.896	9541.68
295.963	9553.1
296.03	9562.34
296.096	9566.58
296.163	9579.44
296.23	9598.94
296.297	9607.47
296.364	9607.95
296.431	9616.38
296.498	9626.59
296.564	9655.72
296.631	9658.27
296.698	9638.77
296.765	9659.57
296.832	9654.61
296.899	9630.29
296.965	9647.1
297.032	9620.9
297.099	9638.96
297.166	9649.75
297.233	9651.34
297.299	9646.95
297.366	9653.02
297.433	9653.36
297.5	9661.4
297.566	9660.2
297.633	9656.78
297.7	9659.19
297.767	9662.61
297.833	9670.65
297.9	9671.18
297.967	9651.34
298.033	9662.32
298.1	9698.01
298.167	9686.79
298.234	9691.6
298.3	9712.36
298.367	9713.61
298.434	9725.65
298.5	9710.72
298.567	9702.68
298.634	9697.96
298.7	9714.67
298.767	9714.86
298.834	9728.49
298.9	9717.46
298.967	9712.41
299.033	9726.76
299.1	9744.92
299.167	9758.74
299.233	9750.46
299.3	9762.55
299.366	9781.28
299.433	9800.02
299.5	9773.52
299.566	9779.64
299.633	9794.81
299.699	9803.39
299.766	9798.81
299.832	9803.77
299.899	9819.77
299.965	9832.29
300.032	9826.36
300.099	9835.23
300.165	9844.62
300.232	9845.73
300.298	9851.07
300.365	9864.56
300.431	9863.98
300.498	9856.71
300.564	9858.88
300.631	9865.62
300.697	9882.14
300.763	9879.2
300.83	9875.16
300.896	9886.28
300.963	9896.4
301.029	9901.55
301.096	9909.16
301.162	9923.23
301.229	9914.89
301.295	9902.95
301.361	9908.39
301.428	9920.62
301.494	9907.23
301.561	9902.08
301.627	9903.33
301.693	9907.23
301.76	9911.09
301.826	9906.99
301.892	9919.28
301.959	9933.63
302.025	9940.28
302.092	9933.73
302.158	9947.74
302.224	9951.84
302.291	9947.26
302.357	9946.97
302.423	9933.92
302.49	9918.6
302.556	9932.04
302.622	9932.14
302.688	9944.76
302.755	9960.7
302.821	9967.4
302.887	9981.7
302.954	9981.56
303.02	9995.82
303.086	10004.01
303.152	10001.74
303.219	9996.88
303.285	10000.3
303.351	10005.69
303.417	10006.51
303.483	9994.13
303.55	9985.95
303.616	9990.47
303.682	9987.82
303.748	9980.26
303.815	9998.42
303.881	10014.8
303.947	9994.62
304.013	9998.04
304.079	9983.68
304.145	9958.83
304.212	9954.54
304.278	9939.17
304.344	9940.86
304.41	9923.13
304.476	9915.72
304.542	9913.45
304.608	9921.06
304.674	9898.95
304.741	9893.94
304.807	9896.59
304.873	9901.94
304.939	9914.85
305.005	9885.27
305.071	9886.09
305.137	9886.33
305.203	9863.55
305.269	9860.7
305.335	9878.29
305.401	9877.61
305.467	9877.52
305.533	9890.09
305.599	9899.58
305.666	9913.11
305.732	9911.14
305.798	9920.91
305.864	9944.95
305.93	9947.89
305.996	9947.27
306.062	9954.35
306.128	9943.7
306.194	9931.71
306.259	9938.64
306.325	9931.08
306.391	9947.5
306.457	9955.31
306.523	9958.87
306.589	9982.28
306.655	9971.88
306.721	9950.73
306.787	9935.9
306.853	9953.53
306.919	9936.14
306.985	9931.18
307.051	9926.26
307.117	9918.07
307.183	9913.07
307.248	9885.03
307.314	9889.99
307.38	9889.36
307.446	9892.21
307.512	9890.18
307.578	9893.94
307.644	9882.57
307.709	9888.35
307.775	9881.08
307.841	9875.68
307.907	9874.77
307.973	9853.77
308.039	9853.57
308.104	9858.54
308.17	9866.39
308.236	9849.33
308.302	9854.63
308.368	9843.55
308.433	9842.78
308.499	9839.65
308.565	9832.38
308.631	9837.29
308.696	9811.67
308.762	9805.17
308.828	9804.73
308.894	9782.48
308.959	9758.74
309.025	9750.31
309.091	9737.31
309.156	9732.54
309.222	9737.74
309.288	9729.36
309.354	9709.95
309.419	9703.5
309.485	9691.94
309.551	9699.11
309.616	9679.56
309.682	9673.3
309.748	9666.27
309.813	9659.24
309.879	9650.86
309.945	9641.27
310.01	9626.34
310.076	9636.94
310.141	9626.77
310.207	9609.77
310.273	9615.21
310.338	9624.41
310.404	9611.07
310.469	9601.78
310.535	9587.62
310.601	9561.61
310.666	9566.38
310.732	9575.48
310.797	9560.89
310.863	9547.36
310.928	9530.02
310.994	9535.07
311.059	9529.63
311.125	9527.42
311.191	9539.36
311.256	9526.6
311.322	9529.68
311.387	9515.04
311.453	9922.02
311.518	9890.19
311.584	9891.3
311.649	9895.54
311.715	9885.18
311.78	9889.95
311.846	9881.62
311.911	9886.34
311.976	9888.6
312.042	9875.07
312.107	9860.53
312.173	9857.88
312.238	9851.95
312.304	9845.02
312.369	9841.22
312.434	9836.01
312.5	9829.37
312.565	9790.55
312.631	9801.63
312.696	9791.71
312.761	9794.02
312.827	9369.23
312.892	9412.08
312.958	9409
313.023	9403.22
313.088	9398.99
313.154	9380.83
313.219	9368.99
313.284	9365.81
313.35	9359.02
313.415	9346.94
313.48	9341.35
313.546	9341.4
313.611	9352.28
313.676	9344.48
313.741	9327.39
313.807	9327.53
313.872	9332.11
313.937	9344.48
314.003	9347.27
314.068	9348.53
314.133	9353.53
314.198	9344.24
314.264	9328.35
314.329	9314.38
314.394	9313.66
314.459	9317.27
314.525	9340.24
314.59	9340.43
314.655	9324.64
314.72	9331.19
314.785	9330.75
314.851	9327.67
314.916	9310.68
314.981	9290.98
315.046	9286.02
315.111	9281.16
315.176	9271.72
315.242	9274.81
315.307	9269.8
315.372	9246.3
315.437	9232.14
315.502	9225.21
315.567	9239.56
315.632	9221.02
315.698	9221.31
315.763	9212.98
315.828	9193
315.893	9183.42
315.958	9171.53
316.023	9164.93
316.088	9145.57
316.153	9123.77
316.218	9113.37
316.283	9094.84
316.348	9073.75
316.413	9071.97
316.479	9058.69
316.544	9023.45
316.609	8990.23
316.674	8955.24
316.739	8924.48
316.804	8893.24
316.869	8857.19
316.934	8811.6
316.999	8786.33
317.064	8735.36
317.129	8694.25
317.194	8666.77
317.259	8622.58
317.324	8575.24
317.389	8529.62
317.454	8488.47
317.518	8454.84
317.583	8431.54
317.648	8410.13
317.713	8386.51
317.778	8325.97
317.843	8299.79
317.908	8262.95
317.973	8220.89
318.038	8191.02
318.103	8157.2
318.168	8128.63
318.233	8097.84
318.297	8049.12
318.362	8003.27
318.427	7968.94
318.492	7936.03
318.557	7878.81
318.622	7845.91
318.687	7822.45
318.751	7781.34
318.816	7750.99
318.881	7717.72
318.946	7661.26
319.011	7614.28
319.075	7569.23
319.14	7535.73
319.205	7482.12
319.27	7451.16
319.335	7407.37
319.399	7367.13
319.464	7335.27
319.529	7281.58
319.594	7235.25
319.658	7209.2
319.723	7168.02
319.788	7135.87
319.853	7084.59
319.917	7060.96
319.982	7003.92
320.047	6967.55
320.112	6943.72
320.176	6890.69
320.241	6853.21
320.306	6823.96
320.37	6782.89
320.435	6750.9
320.5	6717.38
320.564	6680.21
320.629	6638.05
320.694	6605.1
320.758	6563.71
320.823	6519.68
320.888	6494.14
320.952	6443.98
321.017	6404.99
321.082	6367.89
321.146	6332.08
321.211	6297.95
321.275	6253.37
321.34	6211.58
321.405	6164.88
321.469	6109.7
321.534	6067.63
321.598	6019.36
321.663	5986.54
321.727	5954.87
321.792	5905.03
321.857	5863.53
321.921	5826.07
321.986	5781.28
322.05	5721.73
322.115	5680.78
322.179	5635.42
322.244	5574.4
322.308	5541.99
322.373	5488.97
322.437	5444.53
322.502	5417.49
322.566	5371.71
322.631	5335.87
322.695	5298.54
322.76	5250.01
322.824	5217.15
322.889	5175.86
322.953	5128.11
323.018	5060.32
323.082	4995.38
323.146	4943.48
323.211	4885.01
323.275	4837.79
323.34	4792.65
323.404	4758.76
323.468	4711.37
323.533	4667.72
323.597	4622.32
323.662	4572.55
323.726	4537.9
323.79	4494.69
323.855	4427.83
323.919	4377.79
323.983	4330.18
324.048	4258.82
324.112	4420.56
324.177	4288.4
324.241	4066.43
324.305	3851.14
324.37	3638.87
324.434	3433.73
324.498	3388.34
324.562	3338.69
324.627	3276.11
324.691	3215.67
324.755	3147.5
324.82	3068.42
324.884	2988.96
324.948	2914.72
325.012	2814.47
325.077	2682.48
