Data from 20250703_urea_0.1M_MAYP1162681_19-01-05-476.txt Node
Date: Thu Jul 03 19:01:05 BST 2025
User: adleo
Spectrometer: MAYP116268
Trigger mode: 0
Integration Time (sec): 1.000000E0
Scans to average: 1
Electric dark correction enabled: true
Nonlinearity correction enabled: true
Boxcar width: 10
XAxis mode: Wavelengths
Number of Pixels in Spectrum: 2068
>>>>>Begin Spectral Data<<<<<
179.565	1358.32
179.642	1416.54
179.718	1468.03
179.795	1511.31
179.871	1551.21
179.948	1571.58
180.024	1599.25
180.101	1624.07
180.177	1639.18
180.254	1665.21
180.33	1691.95
180.407	1756.11
180.483	1863.35
180.56	1966.51
180.636	2061.52
180.712	2045.67
180.789	2055.81
180.865	2072.87
180.942	2082.62
181.018	2093.33
181.095	2106.65
181.171	2114.64
181.248	2118.49
181.324	2134.72
181.4	2142.38
181.477	2154.75
181.553	2170.78
181.63	2191.19
181.706	2209.94
181.782	2217.36
181.859	2215.08
181.935	2221.45
182.011	2219.83
182.088	2238.44
182.164	2260.06
182.24	2276.66
182.317	2287.79
182.393	2288.31
182.469	2303.16
182.546	2317.25
182.622	2322.58
182.698	2318.44
182.775	2328.67
182.851	2348.85
182.927	2339.24
183.003	2335.67
183.08	2327.15
183.156	2336.72
183.232	2333.62
183.308	2322.72
183.385	2333.95
183.461	2354.32
183.537	2352.04
183.613	2366.65
183.69	2357.84
183.766	2345.61
183.842	2351.56
183.918	2358.46
183.995	2374.88
184.071	2379.64
184.147	2373.69
184.223	2362.61
184.299	2377.13
184.375	2365.37
184.452	2368.18
184.528	2419.69
184.604	2433.02
184.68	2447.34
184.756	2454.39
184.832	2459.34
184.908	2461.01
184.985	2460.15
185.061	2442.45
185.137	2457.4
185.213	2443.73
185.289	2443.26
185.365	2431.5
185.441	2430.65
185.517	2440.22
185.593	2432.65
185.669	2427.89
185.745	2441.17
185.822	2459.59
185.898	2446.64
185.974	2460.44
186.05	2451.3
186.126	2420.12
186.202	2413.36
186.278	2409.03
186.354	2398.79
186.43	2404.31
186.506	2404.65
186.582	2407.07
186.658	2416.59
186.734	2391.89
186.81	2392.74
186.886	2394.98
186.962	2416.16
187.038	2411.16
187.114	2406.31
187.19	2416.92
187.266	2407.88
187.341	2405.45
187.417	2396.41
187.493	2399.83
187.569	2402.36
187.645	2396.36
187.721	2382.79
187.797	2387.98
187.873	2393.6
187.949	2389.12
188.025	2383.69
188.101	2386.36
188.176	2390.74
188.252	2385.79
188.328	2395.26
188.404	2397.64
188.48	2393.4
188.556	2384.26
188.632	2383.73
188.707	2386.16
188.783	2376.54
188.859	2372.07
188.935	2360.31
189.011	2368.88
189.086	2361.98
189.162	2351.6
189.238	2350.55
189.314	2349.65
189.39	2345.56
189.465	2335.8
189.541	2353.13
189.617	2336.33
189.693	2334.61
189.768	2339.9
189.844	2365.66
189.92	2352.48
189.996	2364.43
190.071	2377.33
190.147	2373.9
190.223	2386.57
190.298	2378.62
190.374	2368.15
190.45	2377.9
190.526	2387.85
190.601	2379.9
190.677	2382.61
190.753	2410.52
190.828	2413.62
190.904	2429.62
190.98	2444.09
191.055	2455.52
191.131	2446.37
191.207	2468.8
191.282	2477.17
191.358	2465.51
191.433	2452.12
191.509	2468.92
191.585	2461.78
191.66	2462.59
191.736	2472.78
191.811	2464.35
191.887	2479.87
191.963	2508.49
192.038	2516.97
192.114	2517.78
192.189	2523.63
192.265	2518.54
192.34	2497.15
192.416	2495.29
192.491	2488.63
192.567	2490.15
192.642	2493.67
192.718	2493.67
192.793	2479.15
192.869	2474.87
192.944	2478.53
193.02	2484.15
193.095	2489.91
193.171	2496.86
193.246	2497.2
193.322	2491.48
193.397	2491.63
193.473	2477.58
193.548	2455.34
193.624	2460.48
193.699	2459.67
193.775	2475.77
193.85	2478.86
193.925	2491.05
194.001	2491.43
194.076	2484.29
194.152	2474.48
194.227	2467.34
194.302	2457.63
194.378	2464.2
194.453	2461.2
194.529	2473.53
194.604	2457.72
194.679	2451.2
194.755	2431.36
194.83	2441.03
194.905	2440.17
194.981	2447.64
195.056	2438.22
195.131	2445.36
195.207	2444.41
195.282	2434.36
195.357	2414.17
195.433	2431.26
195.508	2413.41
195.583	2419.78
195.659	2435.55
195.734	2444.36
195.809	2445.79
195.884	2455.07
195.96	2452.78
196.035	2470.59
196.11	2465.3
196.185	2477.78
196.261	2482.2
196.336	2516.01
196.411	2502.39
196.486	2508.53
196.561	2502.58
196.637	2513.62
196.712	2530.96
196.787	2533.87
196.862	2550.58
196.937	2563.44
197.013	2572.06
197.088	2587.91
197.163	2613.93
197.238	2630.71
197.313	2630.04
197.388	2641.14
197.464	2674.92
197.539	2687.64
197.614	2678.21
197.689	2693.41
197.764	2715.61
197.839	2733.57
197.914	2728.62
197.989	2754.25
198.065	2770.92
198.14	2826.86
198.215	2852.78
198.29	2863.36
198.365	2879.04
198.44	2888.14
198.515	2920.04
198.59	2937.39
198.665	2959.84
198.74	2968.81
198.815	2973.1
198.89	2999.17
198.965	3034.8
199.04	3027.69
199.115	3046.42
199.19	3092.86
199.265	3094.29
199.34	3101.63
199.415	3142.28
199.49	3164.74
199.565	3176.66
199.64	3201.56
199.715	3195.54
199.79	3208.33
199.865	3218.01
199.94	3215
200.015	3249.4
200.09	3254.6
200.165	3257.99
200.24	3271.35
200.315	3314.13
200.39	3329.54
200.464	3334.08
200.539	3335.99
200.614	3356.21
200.689	3378.88
200.764	3388.62
200.839	3408.93
200.914	3413.85
200.989	3401.34
201.063	3415.22
201.138	3397.39
201.213	3394.24
201.288	3376.39
201.363	3378.45
201.438	3382.07
201.512	3399.43
201.587	3383.02
201.662	3385.35
201.737	3399.53
201.812	3406.31
201.886	3375.54
201.961	3384.9
202.036	3376.36
202.111	3371.97
202.186	3343.22
202.26	3328.75
202.335	3305.75
202.41	3300.93
202.485	3285.05
202.559	3266.92
202.634	3242.78
202.709	3254.27
202.784	3239.67
202.858	3240.77
202.933	3224.74
203.008	3221.31
203.082	3205.38
203.157	3211.2
203.232	3171.96
203.306	3151.96
203.381	3127.96
203.456	3105.11
203.53	3089.84
203.605	3078.44
203.68	3064.03
203.754	3066.27
203.829	3064.79
203.904	3054.59
203.978	3059.41
204.053	3083.93
204.127	3089.32
204.202	3107.16
204.277	3107.59
204.351	3122.75
204.426	3139.84
204.5	3155.86
204.575	3144.08
204.65	3187.76
204.724	3212.59
204.799	3252.4
204.873	3291.45
204.948	3330.45
205.022	3363.95
205.097	3400.06
205.171	3458.72
205.246	3518
205.32	3568.82
205.395	3620.17
205.469	3669.24
205.544	3734.95
205.618	3775.04
205.693	3852.75
205.767	3907.7
205.842	4004.84
205.916	4073.33
205.991	4137.06
206.065	4227.88
206.14	4325.24
206.214	4404.64
206.289	4483.33
206.363	4591.62
206.438	4686.42
206.512	4786.4
206.586	4905.33
206.661	5014.48
206.735	5093.39
206.81	5199.75
206.884	5329.83
206.958	5432.77
207.033	5561.47
207.107	5686.82
207.181	5840.31
207.256	5950.59
207.33	6092.97
207.405	6234.86
207.479	6381.96
207.553	6523.74
207.628	6633.04
207.702	6780.64
207.776	6901.87
207.851	7038.92
207.925	7189.77
207.999	7322.7
208.073	7464.45
208.148	7603.77
208.222	7735.33
208.296	7916.43
208.371	8078.55
208.445	8236.29
208.519	8413.95
208.593	8572.67
208.668	8719.61
208.742	8877.04
208.816	9037.3
208.89	9207.83
208.965	9362.81
209.039	9529.33
209.113	9699.8
209.187	9882.48
209.261	10037.22
209.336	10222.51
209.41	10402.24
209.484	10559.93
209.558	10744.65
209.632	10913.47
209.707	11081.53
209.781	11260.35
209.855	11437.02
209.929	11612.99
210.003	11774.3
210.077	11928.29
210.151	12149.61
210.226	12340.73
210.3	12526.35
210.374	12699.68
210.448	12853.5
210.522	13007.41
210.596	13165.67
210.67	13331.88
210.744	13534.52
210.818	13721.22
210.892	13890.32
210.966	14028.86
211.041	14200.47
211.115	14341.47
211.189	14511.39
211.263	14678.56
211.337	14830.74
211.411	14987.89
211.485	15123.09
211.559	15281.44
211.633	15416.41
211.707	15519.07
211.781	15666.13
211.855	15755.83
211.929	15887.56
212.003	16004.5
212.077	16150.3
212.151	16304.77
212.225	16441.6
212.299	16553.8
212.373	16662.05
212.447	16783.75
212.52	16953.83
212.594	17077.3
212.668	17207.52
212.742	17312.2
212.816	17418.76
212.89	17536.21
212.964	17652.49
213.038	17775.24
213.112	17903.38
213.186	18039.67
213.26	18131.81
213.333	18191.62
213.407	18309.64
213.481	18418.12
213.555	18543.8
213.629	18631.51
213.703	18707.84
213.777	18812.36
213.85	18894.43
213.924	19042.09
213.998	19150.95
214.072	19228.87
214.146	19318.84
214.219	19418.41
214.293	19509.53
214.367	19615.5
214.441	19713.48
214.515	19792.08
214.588	19849.37
214.662	19896.12
214.736	19963.25
214.81	20042.14
214.883	20141.84
214.957	20219.38
215.031	20288.15
215.105	20347.38
215.178	20416.44
215.252	20489.6
215.326	20533.45
215.4	20590.51
215.473	20598.32
215.547	20647.91
215.621	20712.21
215.694	20781.66
215.768	20821.71
215.842	20877.18
215.915	20923.64
215.989	20956.12
216.063	21020.13
216.136	21090.6
216.21	21160.91
216.284	21235.77
216.357	21316.02
216.431	21373.33
216.504	21440.42
216.578	21535.57
216.652	21601.12
216.725	21665.08
216.799	21733.63
216.873	21799.56
216.946	21861.69
217.02	21924.79
217.093	21983.65
217.167	22019.32
217.24	22057.26
217.314	22111.15
217.387	22159.54
217.461	22214.4
217.535	22281.41
217.608	22296.78
217.682	22339.06
217.755	22390.26
217.829	22425.36
217.902	22456.55
217.976	22495.21
218.049	22526.11
218.123	22537.2
218.196	22586.81
218.27	22617.86
218.343	22647.03
218.417	22694.47
218.49	22730.1
218.563	22784.48
218.637	22813.7
218.71	22872.14
218.784	22915.25
218.857	22958.01
218.931	22996.97
219.004	23031.3
219.077	23074.65
219.151	23139.6
219.224	23175.37
219.298	23208.93
219.371	23265.4
219.444	23294.91
219.518	23325.29
219.591	23364.06
219.665	23444.07
219.738	23470.3
219.811	23503.77
219.885	23549.92
219.958	23597.37
220.031	23629.44
220.105	23664.55
220.178	23702.22
220.251	23717.75
220.325	23758.31
220.398	23800.07
220.471	23842.51
220.544	23883.12
220.618	23908.39
220.691	23935.26
220.764	23968.25
220.838	24001.33
220.911	24009.1
220.984	24059.11
221.057	24096.93
221.131	24131.27
221.204	24113.56
221.277	24161.32
221.35	24216.26
221.424	24239.27
221.497	24251.52
221.57	24282.44
221.643	24309.5
221.716	24356.78
221.79	24379.06
221.863	24397.54
221.936	24416.21
222.009	24432.32
222.082	24454.56
222.155	24469.99
222.229	24505.98
222.302	24531.07
222.375	24543.13
222.448	24574.29
222.521	24579.4
222.594	24582.54
222.667	24575.45
222.74	24598.7
222.814	24605.26
222.887	24601.11
222.96	24615.2
223.033	24634.16
223.106	24644.63
223.179	24653.55
223.252	24644.43
223.325	24651.81
223.398	24652.44
223.471	24651.81
223.544	24666.05
223.617	24667.35
223.69	24669.76
223.763	24649.01
223.837	24655.19
223.91	24660.83
223.983	24638.64
224.056	24638.84
224.129	24651.81
224.202	24671.2
224.275	24666.33
224.348	24647.23
224.42	24637.53
224.493	24612.16
224.566	24604.15
224.639	24603.95
224.712	24591.36
224.785	24575.92
224.858	24570.23
224.931	24566.42
225.004	24551.9
225.077	24539.31
225.15	24503.37
225.223	24497.29
225.296	24521.66
225.369	24496.33
225.442	24490.01
225.514	24492.32
225.587	24483.26
225.66	24486.83
225.733	24478.58
225.806	24476.98
225.879	24478.48
225.952	24453.98
226.025	24459.38
226.097	24458.51
226.17	24449.68
226.243	24422.23
226.316	24409.6
226.389	24403.81
226.461	24397.25
226.534	24397.1
226.607	24389
226.68	24403.03
226.753	24385.38
226.825	24343.6
226.898	24348.57
226.971	24323.63
227.044	24309.5
227.117	24296.57
227.189	24272.59
227.262	24265.55
227.335	24248.19
227.407	24217.94
227.48	24213.17
227.553	24194.6
227.626	24173.52
227.698	24155.67
227.771	24151.23
227.844	24132.71
227.916	24109.22
227.989	24080.62
228.062	24056.4
228.134	24056.26
228.207	24031.76
228.28	24011.6
228.352	23994.43
228.425	23974.07
228.498	23973.54
228.57	23957.33
228.643	23963.46
228.716	23942.09
228.788	23914.55
228.861	23896.47
228.934	23898.54
229.006	23873.27
229.079	23856.05
229.151	23829.77
229.224	23794.03
229.296	23778.89
229.369	23784.34
229.442	23785.11
229.514	23752.03
229.587	23751.5
229.659	23710.55
229.732	23703.17
229.804	23699.94
229.877	23699.7
229.949	23691.6
230.022	23690.1
230.094	23669.22
230.167	23646.02
230.239	23615.01
230.312	23600.06
230.384	23611.83
230.457	23595.68
230.529	23580.25
230.602	23561
230.674	23543.93
230.747	23538.15
230.819	23527.73
230.892	23477.05
230.964	23460.99
231.037	23457.52
231.109	23431.91
231.181	23425.35
231.254	23380.94
231.326	23349.21
231.399	23326.02
231.471	23281.99
231.544	23228.51
231.616	23215.54
231.688	23193.99
231.761	23169.11
231.833	23143.31
231.905	23083.23
231.978	23056.32
232.05	23039.59
232.122	23014.42
232.195	22977.44
232.267	22969.29
232.339	22929.46
232.412	22922.13
232.484	22888.38
232.556	22845.91
232.629	22835.54
232.701	22812.3
232.773	22802.66
232.846	22775.03
232.918	22752.66
232.99	22734.68
233.062	22725.03
233.135	22696.35
233.207	22645.58
233.279	22632.32
233.351	22610.43
233.424	22578.52
233.496	22542.94
233.568	22534.02
233.64	22492.46
233.713	22472.94
233.785	22436.73
233.857	22418.22
233.929	22371.99
234.001	22351.07
234.074	22342.34
234.146	22304.21
234.218	22274.51
234.29	22237.54
234.362	22201
234.434	22140.45
234.507	22099.28
234.579	22048.91
234.651	22007.4
234.723	21983.49
234.795	21956.93
234.867	21912.44
234.939	21898.03
235.012	21863.03
235.084	21842.06
235.156	21816.95
235.228	21772.41
235.3	21735.15
235.372	21708.98
235.444	21683.19
235.516	21631.66
235.588	21591.03
235.66	21545.67
235.732	21494.44
235.804	21518.88
235.876	21493.96
235.948	21492.17
236.02	21456.46
236.092	21423.11
236.164	21382.76
236.236	21338.04
236.308	21294.13
236.38	21271.77
236.452	21224.1
236.524	21196.63
236.596	21160.09
236.668	21137.44
236.74	21102.16
236.812	21068.52
236.884	21032.37
236.956	20992.41
237.028	20942.15
237.1	20903.78
237.172	20882.63
237.244	20867.49
237.316	20794.13
237.388	20756.4
237.46	20698.47
237.532	20685.12
237.604	20644.44
237.675	20632.39
237.747	20615.09
237.819	20571.28
237.891	20527.28
237.963	20490.22
238.035	20454.42
238.107	20384.54
238.178	20365.84
238.25	20330.66
238.322	20322.56
238.394	20258.27
238.466	20228.44
238.538	20210.51
238.609	20171.33
238.681	20120.78
238.753	20066.81
238.825	20030.04
238.897	19990.57
238.968	19971.15
239.04	19917.27
239.112	19912.55
239.184	19858.38
239.255	19815.68
239.327	19779.15
239.399	19745.23
239.471	19712.12
239.542	19679.88
239.614	19654.53
239.686	19582.01
239.758	19560.71
239.829	19506.83
239.901	19493.24
239.973	19454.54
240.044	19414.35
240.116	19382.98
240.188	19341.1
240.259	19313.73
240.331	19266.46
240.403	19237.21
240.474	19184.97
240.546	19143.77
240.618	19078.42
240.689	19040.11
240.761	18996.35
240.833	18976.07
240.904	18929.56
240.976	18895.93
241.048	18849.52
241.119	18821.33
241.191	18793.72
241.262	18779.64
241.334	18728.9
241.405	18695.89
241.477	18648.57
241.549	18610.26
241.62	18572.19
241.692	18546.84
241.763	18515.76
241.835	18472.34
241.906	18443.86
241.978	18398.41
242.049	18377.06
242.121	18345.6
242.192	18328.92
242.264	18280.73
242.335	18217.84
242.407	18200.25
242.478	18153.17
242.55	18125.75
242.621	18089.41
242.693	18053.42
242.764	18001.37
242.836	17966.19
242.907	17926.34
242.979	17908.36
243.05	17877.81
243.122	17853.09
243.193	17807.74
243.264	17745.18
243.336	17716.56
243.407	17684.9
243.479	17666.73
243.55	17639.11
243.622	17611.74
243.693	17558.78
243.764	17541.77
243.836	17508.99
243.907	17464.37
243.978	17431.07
244.05	17393.28
244.121	17327.74
244.192	17294.97
244.264	17238.78
244.335	17207.84
244.407	17154.97
244.478	17118.97
244.549	17077.04
244.62	17018.91
244.692	16986.43
244.763	16961.9
244.834	16920.12
244.906	16873.85
244.977	16837.08
245.048	16809.94
245.119	16766.13
245.191	16728.06
245.262	16668.3
245.333	16659.24
245.405	16628.82
245.476	16601.35
245.547	16573.93
245.618	16564.39
245.689	16534.17
245.761	16509.83
245.832	16477.2
245.903	16459.8
245.974	16429.24
246.045	16397.58
246.117	16386.2
246.188	16329.52
246.259	16291.11
246.33	16259.73
246.401	16222.43
246.473	16178.18
246.544	16127.14
246.615	16101.79
246.686	16062.51
246.757	16050.65
246.828	16004.14
246.899	15989.1
246.97	15939.12
247.042	15894.72
247.113	15861.18
247.184	15851.39
247.255	15808.21
247.326	15773.12
247.397	15737.88
247.468	15707.04
247.539	15671.9
247.61	15631.46
247.681	15622.88
247.752	15607.84
247.823	15568.7
247.894	15542.04
247.965	15504.16
248.037	15470.85
248.108	15427.33
248.179	15399.32
248.25	15367.8
248.321	15336.03
248.392	15286.38
248.463	15284.6
248.534	15251.63
248.605	15235.82
248.675	15196.25
248.746	15178.41
248.817	15151.27
248.888	15121.73
248.959	15076.27
249.03	15062.82
249.101	15032.79
249.172	15000.3
249.243	14947.33
249.314	14928.14
249.385	14893
249.456	14869.24
249.527	14842.39
249.598	14822.82
249.669	14798.57
249.739	14775.58
249.81	14761.21
249.881	14719.9
249.952	14691.17
250.023	14666.92
250.094	14616.6
250.165	14576.06
250.235	14540.48
250.306	14517.25
250.377	14477.43
250.448	14455.4
250.519	14397.22
250.59	14386.56
250.66	14360
250.731	14348.19
250.802	14326.79
250.873	14308.52
250.944	14290.59
251.014	14255.93
251.085	14251.3
251.156	14223.87
251.227	14211.58
251.297	14201.7
251.368	14186.51
251.439	14168.1
251.51	14149.63
251.58	14114.15
251.651	14082.43
251.722	14069.85
251.792	14022.27
251.863	13992.43
251.934	13987.52
252.005	14000.97
252.075	13979.08
252.146	13956.47
252.217	13946.73
252.287	13930.2
252.358	13908.17
252.429	13898.58
252.499	13874.09
252.57	13852.59
252.641	13845.79
252.711	13812.72
252.782	13760.8
252.852	13758.92
252.923	13722.72
252.994	13702.76
253.064	13697.31
253.135	13664.34
253.205	13639.37
253.276	13647.08
253.347	13647.71
253.417	13606.54
253.488	13575.98
253.558	13540.74
253.629	13517.31
253.699	13501.64
253.77	13486.55
253.841	13451.89
253.911	13431.55
253.982	13403.25
254.052	13384.12
254.123	13361.22
254.193	13344.3
254.264	13367.68
254.334	13337.64
254.405	13308.87
254.475	13279.32
254.546	13253.04
254.616	13254.25
254.687	13235.16
254.757	13209.13
254.827	13184.69
254.898	13171.19
254.968	13144.43
255.039	13115.61
255.109	13111.32
255.18	13071.59
255.25	13022.62
255.321	13020.64
255.391	12978.46
255.461	12985.69
255.532	12937.87
255.602	12906.05
255.673	12863.15
255.743	12827.77
255.813	12771.85
255.884	12766.64
255.954	12749.48
256.024	12749.77
256.095	12725.77
256.165	12690.77
256.235	12681.85
256.306	12655.24
256.376	12649.02
256.446	12640.97
256.517	12628.25
256.587	12612.97
256.657	12592.62
256.728	12573.29
256.798	12546.01
256.868	12525.14
256.938	12497.56
257.009	12489.03
257.079	12486.28
257.149	12496.94
257.219	12458.37
257.29	12450.57
257.36	12402.55
257.43	12394.94
257.5	12356.71
257.571	12327.26
257.641	12317.28
257.711	12275.1
257.781	12256.79
257.852	12235.77
257.922	12191.04
257.992	12178.7
258.062	12157.39
258.132	12153.1
258.202	12136.38
258.273	12124.18
258.343	12122.78
258.413	12098.59
258.483	12078.77
258.553	12046.33
258.623	12017.32
258.693	12001.22
258.764	12001.12
258.834	12007.1
258.904	11979.52
258.974	11945.21
259.044	11927.52
259.114	11915.13
259.184	11901.54
259.254	11887.66
259.324	11843.99
259.394	11837.29
259.464	11831.7
259.535	11810.39
259.605	11778.48
259.675	11753.42
259.745	11737.9
259.815	11707.15
259.885	11676.78
259.955	11689.41
260.025	11661.99
260.095	11642.42
260.165	11628.73
260.235	11628.97
260.305	11597.5
260.375	11572.97
260.445	11577.64
260.515	11584.92
260.585	11571.76
260.655	11554.75
260.725	11547.18
260.795	11542.17
260.865	11545.78
260.934	11517.64
261.004	11506.7
261.074	11497.3
261.144	11496.67
261.214	11492.96
261.284	11477.97
261.354	11475.37
261.424	11443.94
261.494	11454.4
261.564	11438.45
261.634	11428.28
261.703	11386.88
261.773	11382.3
261.843	11377.58
261.913	11358.59
261.983	11314.59
262.053	11310.35
262.123	11286.92
262.192	11250.68
262.262	11244.66
262.332	11211.79
262.402	11200.61
262.472	11180.22
262.541	11143.99
262.611	11134.93
262.681	11100.13
262.751	11096.23
262.821	11078.01
262.89	11048.42
262.96	11031.5
263.03	11029.87
263.1	11018.3
263.169	11000.81
263.239	10987.94
263.309	10995.46
263.379	10988.42
263.448	10980.38
263.518	10961.92
263.588	10953.68
263.657	10960.52
263.727	10954.83
263.797	10941.34
263.867	10924.43
263.936	10900
264.006	10904.33
264.076	10892.43
264.145	10880.58
264.215	10848
264.285	10842.46
264.354	10805.99
264.424	10777.94
264.494	10752.4
264.563	10732.16
264.633	10741.51
264.702	10733.37
264.772	10690.91
264.842	10667.88
264.911	10659.93
264.981	10634.73
265.05	10623.16
265.12	10605
265.19	10587.36
265.259	10581.82
265.329	10574.45
265.398	10557.49
265.468	10563.32
265.537	10547.08
265.607	10536.19
265.676	10543.13
265.746	10538.99
265.815	10541.3
265.885	10526.46
265.955	10504.44
266.024	10487.48
266.094	10453.22
266.163	10457.18
266.232	10463.44
266.302	10447.45
266.371	10434.44
266.441	10421.14
266.51	10414.39
266.58	10394.16
266.649	10376.72
266.719	10369.3
266.788	10360.14
266.858	10374.74
266.927	10330.18
266.996	10306.52
267.066	10293.32
267.135	10261.05
267.205	10250.2
267.274	10238.64
267.343	10241.73
267.413	10228.82
267.482	10237.83
267.552	10240.14
267.621	10201.11
267.69	10167.73
267.76	10161.03
267.829	10153.71
267.898	10140.41
267.968	10112.47
268.037	10111.22
268.106	10106.69
268.176	10086.27
268.245	10072.39
268.314	10049.32
268.384	10053.41
268.453	10048.69
268.522	10045.22
268.592	10052.49
268.661	10027.73
268.73	10020.94
268.799	10000.32
268.869	10008.51
268.938	9969.83
269.007	9949.74
269.076	9945.5
269.146	9947.09
269.215	9939.68
269.284	9947.14
269.353	9929.13
269.422	9924.89
269.492	9910.68
269.561	9867.24
269.63	9859.29
269.699	9845.18
269.768	9833.76
269.838	9829.04
269.907	9826.53
269.976	9802.55
270.045	9768.69
270.114	9766.09
270.183	9751.06
270.253	9744.99
270.322	9709.4
270.391	9696.54
270.46	9703.38
270.529	9700.2
270.598	9691.58
270.667	9679.78
270.736	9653.58
270.806	9651.55
270.875	9650.4
270.944	9632.29
271.013	9655.31
271.082	9646.06
271.151	9635.37
271.22	9602.96
271.289	9588.8
271.358	9575.7
271.427	9570.93
271.496	9565.78
271.565	9545.89
271.634	9542.28
271.703	9565.64
271.772	9574.45
271.841	9565.5
271.91	9536.41
271.979	9530.87
272.048	9513.05
272.117	9511.46
272.186	9496.49
272.255	9496.05
272.324	9494.75
272.393	9494.37
272.462	9477.41
272.531	9468.17
272.6	9456.42
272.669	9463.88
272.738	9451.94
272.807	9443.22
272.876	9419.1
272.945	9448.81
273.013	9455.51
273.082	9456.66
273.151	9412.35
273.22	9402.05
273.289	9396.8
273.358	9414.91
273.427	9398.1
273.496	9393.62
273.564	9388.23
273.633	9388.08
273.702	9373.4
273.771	9362.27
273.84	9353.7
273.909	9353.37
273.977	9352.21
274.046	9339.21
274.115	9351.15
274.184	9337
274.253	9330.93
274.322	9340.41
274.39	9296.35
274.459	9283.45
274.528	9251.29
274.597	9242.48
274.665	9239.39
274.734	9244.74
274.803	9228.22
274.872	9225.91
274.94	9207.47
275.009	9237.67
275.078	9221.2
275.147	9212.73
275.215	9207.19
275.284	9213.93
275.353	9199.73
275.421	9173.39
275.49	9189.86
275.559	9172.19
275.627	9162.42
275.696	9152.55
275.765	9152.88
275.833	9148.89
275.902	9146.72
275.971	9157.94
276.039	9174.12
276.108	9175.75
276.177	9178.26
276.245	9170.55
276.314	9161.07
276.383	9177.05
276.451	9141.6
276.52	9146.8
276.588	9162.64
276.657	9165.97
276.725	9152.05
276.794	9151.14
276.863	9164.09
276.931	9141.31
277	9147.91
277.068	9160.28
277.137	9179.93
277.205	9179.54
277.274	9200.34
277.342	9211.22
277.411	9197.36
277.48	9180.75
277.548	9169.19
277.617	9165.19
277.685	9150.99
277.754	9150.17
277.822	9136.98
277.89	9151.91
277.959	9144.26
278.027	9126.01
278.096	9117
278.164	9152.49
278.233	9145.37
278.301	9139.83
278.37	9145.27
278.438	9136.12
278.507	9137.66
278.575	9112.72
278.643	9109.02
278.712	9091.49
278.78	9069.92
278.849	9082.39
278.917	9096.16
278.985	9097.12
279.054	9097.51
279.122	9113.92
279.191	9113.3
279.259	9102.76
279.327	9076.56
279.396	9088.41
279.464	9075.31
279.532	9083.83
279.601	9072.57
279.669	9070.21
279.737	9077.38
279.806	9079.35
279.874	9084.99
279.942	9078.44
280.011	9074.3
280.079	9078.87
280.147	9089.66
280.215	9099
280.284	9089.37
280.352	9074.49
280.42	9082.73
280.488	9070.59
280.557	9066.31
280.625	9071.8
280.693	9081.38
280.761	9082.15
280.83	9069.34
280.898	9089.85
280.966	9064.19
281.034	9029.38
281.102	9012.44
281.171	9011.33
281.239	9017.11
281.307	9006.8
281.375	9000.06
281.443	9021.97
281.512	9020.14
281.58	9028.71
281.648	9011.57
281.716	9010.95
281.784	9006.81
281.852	8996.12
281.92	8997.13
281.989	9003.97
282.057	8983.6
282.125	9037.25
282.193	9030.51
282.261	9029.21
282.329	9025.6
282.397	9030.08
282.465	9034.55
282.533	9053.18
282.601	9032.67
282.67	9009.71
282.738	9001.62
282.806	9014.47
282.874	9002.63
282.942	9001.91
283.01	8995.5
283.078	9004.22
283.146	9002.73
283.214	9015.39
283.282	9019.14
283.35	9032.48
283.418	9024.82
283.486	9029.49
283.554	8973.63
283.622	8976.09
283.69	8975.8
283.758	8969.06
283.826	8976.09
283.894	8988.51
283.962	9008.82
284.03	9028.32
284.098	9032.75
284.165	9028.75
284.233	9024.37
284.301	9019.17
284.369	9015.85
284.437	9006.17
284.505	8996.88
284.573	9015.8
284.641	8998.67
284.709	9006.51
284.777	8992.5
284.845	9000.06
284.912	9009.21
284.98	9015.75
285.048	9013.06
285.116	9018.84
285.184	9031.02
285.252	9026.68
285.319	9006.37
285.387	8996.16
285.455	8973.97
285.523	8973.54
285.591	8973.73
285.659	8976.62
285.726	8984.99
285.794	8966.17
285.862	8964.01
285.93	8967.91
285.997	8957.12
286.065	8959.34
286.133	8942.92
286.201	8935.36
286.269	8921.54
286.336	8917.16
286.404	8908.4
286.472	8922.56
286.539	8897.86
286.607	8879.28
286.675	8887.08
286.743	8900.99
286.81	8890.4
286.878	8911.68
286.946	8906.24
287.013	8904.07
287.081	8901.81
287.149	8887.56
287.216	8908.21
287.284	8904.94
287.352	8902.63
287.419	8899.4
287.487	8913.36
287.555	8923.62
287.622	8921.93
287.69	8931.9
287.758	8941.72
287.825	8939.02
287.893	8926.22
287.96	8930.84
288.028	8940.99
288.096	8937.62
288.163	8938.39
288.231	8931.51
288.298	8927.47
288.366	8953.41
288.433	8949.42
288.501	8946.1
288.569	8948.51
288.636	8942.49
288.704	8960.16
288.771	8973.88
288.839	8966.32
288.906	8959.29
288.974	8969.26
289.041	8965.79
289.109	8955.1
289.176	8964.3
289.244	8970.27
289.311	8979.32
289.379	8993.57
289.446	8994.77
289.514	8991.5
289.581	8990.39
289.649	8991.06
289.716	8993.33
289.783	8979.6
289.851	9005.94
289.918	9002.47
289.986	9017.44
290.053	9020.38
290.121	9009.64
290.188	9004.25
290.255	9035.11
290.323	9029.14
290.39	9020.86
290.458	9024.13
290.525	9031.69
290.592	9020.23
290.66	9020.28
290.727	9013.25
290.794	9022.83
290.862	9024.56
290.929	9028.03
290.996	9027.74
291.064	9041.27
291.131	9056.1
291.198	9065.2
291.266	9055.66
291.333	9057.35
291.4	9059.76
291.468	9080.08
291.535	9081.13
291.602	9087.63
291.669	9079.5
291.737	9082.58
291.804	9084.07
291.871	9103.13
291.938	9111.94
292.006	9147.05
292.073	9163.13
292.14	9176.27
292.207	9173.43
292.275	9178.78
292.342	9194.91
292.409	9226.3
292.476	9248.5
292.543	9232.95
292.611	9230.73
292.678	9252.4
292.745	9280.95
292.812	9295.93
292.879	9290.29
292.946	9292.51
293.014	9308.15
293.081	9312.87
293.148	9327.17
293.215	9340.99
293.282	9337.53
293.349	9347.45
293.416	9321.3
293.484	9332.71
293.551	9345.42
293.618	9364.01
293.685	9383.89
293.752	9373.73
293.819	9365.16
293.886	9352.79
293.953	9364.68
294.02	9380.81
294.087	9387.55
294.154	9379.7
294.221	9388.28
294.288	9385.67
294.356	9404.69
294.423	9409.46
294.49	9404.12
294.557	9418.18
294.624	9405.03
294.691	9430.27
294.758	9432.82
294.825	9443.07
294.892	9433.3
294.959	9427.28
295.026	9432.77
295.093	9427.33
295.16	9430.07
295.226	9435.56
295.293	9463.35
295.36	9468.89
295.427	9484.93
295.494	9497.4
295.561	9509.29
295.628	9538
295.695	9554.47
295.762	9557.17
295.829	9564.39
295.896	9588.57
295.963	9601.24
296.03	9620.55
296.096	9619.15
296.163	9629.6
296.23	9642.02
296.297	9656.86
296.364	9657.77
296.431	9665.62
296.498	9670.87
296.564	9705.59
296.631	9702.9
296.698	9687.68
296.765	9708.72
296.832	9691.43
296.899	9676.65
296.965	9693.89
297.032	9669.85
297.099	9693.12
297.166	9706.17
297.233	9703.28
297.299	9693.36
297.366	9695.48
297.433	9687.63
297.5	9705.45
297.566	9709.59
297.633	9710.12
297.7	9718.93
297.767	9718.69
297.833	9725.53
297.9	9718.36
297.967	9693.6
298.033	9711.91
298.1	9738.35
298.167	9728.33
298.234	9732.14
298.3	9747.69
298.367	9740.32
298.434	9745.72
298.5	9729.87
298.567	9717.64
298.634	9715.18
298.7	9729.24
298.767	9727.27
298.834	9748.99
298.9	9736.75
298.967	9723.56
299.033	9733.58
299.1	9743.16
299.167	9760.36
299.233	9758.33
299.3	9771.34
299.366	9792.62
299.433	9807.84
299.5	9782.75
299.566	9787.61
299.633	9808.71
299.699	9816.71
299.766	9815.94
299.832	9823.79
299.899	9842.09
299.965	9861.94
300.032	9862.99
300.099	9874.84
300.165	9880.72
300.232	9881.97
300.298	9883.95
300.365	9906.59
300.431	9906.15
300.498	9898.01
300.564	9910.92
300.631	9918.58
300.697	9937.03
300.763	9939.05
300.83	9925.66
300.896	9940.16
300.963	9949.84
301.029	9954.46
301.096	9957.06
301.162	9968.72
301.229	9961.35
301.295	9942.28
301.361	9948.35
301.428	9954.85
301.494	9938.52
301.561	9937.27
301.627	9938.47
301.693	9940.78
301.76	9940.83
301.826	9943.48
301.892	9953.88
301.959	9960.72
302.025	9954.94
302.092	9950.03
302.158	9957.35
302.224	9968.67
302.291	9956.58
302.357	9953.45
302.423	9947.29
302.49	9942.13
302.556	9959.04
302.622	9961.35
302.688	9980.62
302.755	9991.41
302.821	9998.2
302.887	10004.8
302.954	10007.55
303.02	10016.32
303.086	10025.13
303.152	10019.16
303.219	10011.84
303.285	10024.55
303.351	10027.73
303.417	10029.32
303.483	10020.07
303.55	10010.34
303.616	10010.68
303.682	10011.5
303.748	10008.08
303.815	10027.4
303.881	10040.89
303.947	10021.28
304.013	10023.54
304.079	10008.76
304.145	9983.9
304.212	9984.04
304.278	9981.73
304.344	9973.16
304.41	9955.82
304.476	9943.44
304.542	9944.93
304.608	9945.85
304.674	9923.93
304.741	9916.56
304.807	9918.34
304.873	9923.25
304.939	9941.65
305.005	9922.48
305.071	9923.3
305.137	9925.56
305.203	9896.85
305.269	9886.93
305.335	9894.69
305.401	9887.99
305.467	9890.01
305.533	9903.4
305.599	9906.78
305.666	9917.47
305.732	9925.61
305.798	9940.16
305.864	9970.7
305.93	9966.22
305.996	9969.98
306.062	9968.96
306.128	9964.82
306.194	9957.55
306.259	9957.02
306.325	9948.73
306.391	9967.86
306.457	9979.8
306.523	9978.55
306.589	10002.97
306.655	9997.19
306.721	9982.31
306.787	9974.31
306.853	9987.99
306.919	9970.56
306.985	9963.96
307.051	9955.57
307.117	9945.85
307.183	9943.73
307.248	9909.23
307.314	9918.39
307.38	9922.82
307.446	9926.72
307.512	9917.28
307.578	9923.3
307.644	9921.47
307.709	9921.04
307.775	9910
307.841	9905
307.907	9909.04
307.973	9889.68
308.039	9889
308.104	9896.08
308.17	9898.06
308.236	9879.46
308.302	9886.06
308.368	9877.3
308.433	9874.41
308.499	9874.26
308.565	9855.81
308.631	9862.27
308.696	9842.62
308.762	9826.29
308.828	9825.42
308.894	9807.94
308.959	9784.15
309.025	9770.37
309.091	9765.65
309.156	9752.55
309.222	9752.31
309.288	9738.34
309.354	9715.37
309.419	9708.48
309.485	9691.53
309.551	9688.49
309.616	9673.22
309.682	9662.63
309.748	9652.03
309.813	9647.99
309.879	9636.72
309.945	9627.9
310.01	9621.11
310.076	9620.82
310.141	9617.02
310.207	9600.74
310.273	9602.04
310.338	9605.56
310.404	9591.74
310.469	9577.82
310.535	9570.54
310.601	9549.55
310.666	9556.82
310.732	9572.57
310.797	9563.22
310.863	9554.41
310.928	9556.63
310.994	9560.91
311.059	9559.08
311.125	9560.43
311.191	9574.78
311.256	9561.3
311.322	9564.43
311.387	9545.17
311.453	9987.9
311.518	9959.34
311.584	9962.76
311.649	9968.3
311.715	9955.39
311.78	9961.17
311.846	9944.85
311.911	9950.82
311.976	9955.15
312.042	9935.94
312.107	9919.66
312.173	9907.38
312.238	9900.78
312.304	9891.97
312.369	9881.76
312.434	9868.62
312.5	9861.34
312.565	9825.32
312.631	9832.69
312.696	9823.83
312.761	9822.43
312.827	9370.75
312.892	9413.8
312.958	9409.46
313.023	9403.4
313.088	9405.18
313.154	9383.65
313.219	9384.04
313.284	9374.36
313.35	9368.48
313.415	9359.48
313.48	9348.98
313.546	9358.61
313.611	9369.16
313.676	9354.38
313.741	9343.74
313.807	9355.44
313.872	9361.79
313.937	9366.03
314.003	9377.73
314.068	9384.14
314.133	9397.62
314.198	9387.61
314.264	9361.65
314.329	9350.81
314.394	9347.78
314.459	9347.63
314.525	9372.04
314.59	9368.87
314.655	9353.84
314.72	9356.64
314.785	9358.9
314.851	9358.32
314.916	9335.55
314.981	9321.34
315.046	9313.69
315.111	9305.55
315.176	9298.04
315.242	9295.53
315.307	9289.52
315.372	9266.4
315.437	9256.19
315.502	9248.15
315.567	9258.36
315.632	9246.03
315.698	9245.21
315.763	9243.63
315.828	9233.71
315.893	9233.8
315.958	9223.31
316.023	9219.31
316.088	9202.56
316.153	9182.1
316.218	9175.4
316.283	9163.56
316.348	9144.02
316.413	9148.45
316.479	9137.33
316.544	9095.35
316.609	9061.7
316.674	9025.02
316.739	8990.85
316.804	8955.03
316.869	8912.14
316.934	8873.92
316.999	8846
317.064	8787.91
317.129	8744.44
317.194	8707.38
317.259	8652.7
317.324	8602.75
317.389	8552.51
317.454	8511.02
317.518	8475.03
317.583	8447.16
317.648	8417.28
317.713	8381.87
317.778	8315.7
317.843	8284.57
317.908	8245.03
317.973	8205.77
318.038	8181.14
318.103	8142.9
318.168	8111.1
318.233	8085.02
318.297	8032.3
318.362	7994.2
318.427	7962.47
318.492	7931.05
318.557	7878.5
318.622	7847.13
318.687	7826.27
318.751	7787.8
318.816	7755.48
318.881	7723.17
318.946	7665.22
319.011	7621.61
319.075	7584.44
319.14	7548.49
319.205	7501.85
319.27	7470.27
319.335	7422.64
319.399	7378.7
319.464	7351.93
319.529	7299.59
319.594	7255.99
319.658	7228.26
319.723	7181.5
319.788	7153.68
319.853	7096.78
319.917	7072.13
319.982	7018.99
320.047	6983
320.112	6959.07
320.176	6903.39
320.241	6867.46
320.306	6839.21
320.37	6799.77
320.435	6769.08
320.5	6748.61
320.564	6708.99
320.629	6667.94
320.694	6643.35
320.758	6601.53
320.823	6554.47
320.888	6526.29
320.952	6474.97
321.017	6430.8
321.082	6392.69
321.146	6357.45
321.211	6327.98
321.275	6289.44
321.34	6245.78
321.405	6196.54
321.469	6145.57
321.534	6106.91
321.598	6053.7
321.663	6018.09
321.727	5986.03
321.792	5926.17
321.857	5877.94
321.921	5839.19
321.986	5793.68
322.05	5730.53
322.115	5695.28
322.179	5651.46
322.244	5595.75
322.308	5563.15
322.373	5513.06
322.437	5469.49
322.502	5443.35
322.566	5396.95
322.631	5362.58
322.695	5320.9
322.76	5275.81
322.824	5243.08
322.889	5196.05
322.953	5150.69
323.018	5085.64
323.082	5017.29
323.146	4970.81
323.211	4915.2
323.275	4870.86
323.34	4827.49
323.404	4799.49
323.468	4752.99
323.533	4705.57
323.597	4656.82
323.662	4608.81
323.726	4575.98
323.79	4528.7
323.855	4461.58
323.919	4413.55
323.983	4362.54
324.048	4295.52
324.112	4472.88
324.177	4340.55
324.241	4122.41
324.305	3905.64
324.37	3691.79
324.434	3487.37
324.498	3444.14
324.562	3392.83
324.627	3330.17
324.691	3273.32
324.755	3200.39
324.82	3120.68
324.884	3046.23
324.948	2976.61
325.012	2873.97
325.077	2746.47
