Data from 20250703_urea_0.1M_MAYP1162681_10-01-05-133.txt Node
Date: Fri Jul 04 10:01:05 BST 2025
User: adleo
Spectrometer: MAYP116268
Trigger mode: 0
Integration Time (sec): 1.000000E0
Scans to average: 1
Electric dark correction enabled: true
Nonlinearity correction enabled: true
Boxcar width: 10
XAxis mode: Wavelengths
Number of Pixels in Spectrum: 2068
>>>>>Begin Spectral Data<<<<<
179.565	1216
179.642	1277.26
179.718	1319.11
179.795	1359.54
179.871	1392.85
179.948	1409.53
180.024	1432.16
180.101	1455.45
180.177	1469.4
180.254	1492.98
180.33	1515.6
180.407	1569.68
180.483	1664.37
180.56	1755.78
180.636	1842.09
180.712	1828.97
180.789	1840.56
180.865	1853.16
180.942	1860.05
181.018	1871.93
181.095	1885.25
181.171	1889.81
181.248	1888.15
181.324	1904.22
181.4	1907.83
181.477	1919.62
181.553	1932.46
181.63	1950.05
181.706	1965.03
181.782	1973.16
181.859	1970.78
181.935	1974.96
182.011	1972.49
182.088	1992.46
182.164	2009.21
182.24	2017.91
182.317	2026.94
182.393	2024.66
182.469	2037.88
182.546	2052
182.622	2053.52
182.698	2047.77
182.775	2060.09
182.851	2073.93
182.927	2065.13
183.003	2062.51
183.08	2055.9
183.156	2065.99
183.232	2064.23
183.308	2051.34
183.385	2058.85
183.461	2078.21
183.537	2079.54
183.613	2094.19
183.69	2081.4
183.766	2073.31
183.842	2086.48
183.918	2089.96
183.995	2105.27
184.071	2108.32
184.147	2101.66
184.223	2094.29
184.299	2107.18
184.375	2094.43
184.452	2103.43
184.528	2155.67
184.604	2168.94
184.68	2181.45
184.756	2187.3
184.832	2188.68
184.908	2194.14
184.985	2192.34
185.061	2176.02
185.137	2186.77
185.213	2173.98
185.289	2177.92
185.365	2168.56
185.441	2164.7
185.517	2180.55
185.593	2176.36
185.669	2174.46
185.745	2186.83
185.822	2201.95
185.898	2194.48
185.974	2206.09
186.05	2193.71
186.126	2155.98
186.202	2147.56
186.278	2141.38
186.354	2136.72
186.43	2147.19
186.506	2147.42
186.582	2150.28
186.658	2156.74
186.734	2134.72
186.81	2137.01
186.886	2139.29
186.962	2152.94
187.038	2151.8
187.114	2141.95
187.19	2149.13
187.266	2141.71
187.341	2141.57
187.417	2134
187.493	2132.91
187.569	2134.29
187.645	2130.48
187.721	2120.87
187.797	2127.91
187.873	2133.67
187.949	2125.97
188.025	2118.87
188.101	2123.68
188.176	2126.72
188.252	2121.25
188.328	2129.91
188.404	2129.86
188.48	2123.82
188.556	2120.44
188.632	2117.11
188.707	2121.25
188.783	2114.83
188.859	2108.6
188.935	2096.32
189.011	2104.13
189.086	2096.75
189.162	2088.43
189.238	2085.81
189.314	2083.39
189.39	2077.92
189.465	2069.93
189.541	2088.24
189.617	2072.5
189.693	2066.7
189.768	2070.36
189.844	2097.68
189.92	2089.5
189.996	2097.59
190.071	2108.81
190.147	2102.68
190.223	2114.1
190.298	2106.34
190.374	2094.64
190.45	2105.91
190.526	2113.85
190.601	2107.19
190.677	2112.47
190.753	2140.51
190.828	2143.45
190.904	2158.92
190.98	2172.71
191.055	2180.47
191.131	2166.62
191.207	2188.17
191.282	2197.68
191.358	2190.55
191.433	2174.17
191.509	2189.82
191.585	2186.25
191.66	2189.77
191.736	2200.09
191.811	2187.72
191.887	2200
191.963	2223.36
192.038	2229.31
192.114	2231.31
192.189	2238.3
192.265	2236.06
192.34	2212.98
192.416	2214.17
192.491	2208.93
192.567	2214.36
192.642	2218.97
192.718	2221.68
192.793	2208.46
192.869	2203.27
192.944	2202.8
193.02	2208.27
193.095	2211.12
193.171	2218.59
193.246	2217.74
193.322	2215.22
193.397	2216.21
193.473	2203.94
193.548	2186.33
193.624	2191.8
193.699	2189.95
193.775	2201.85
193.85	2200.85
193.925	2210.94
194.001	2210.32
194.076	2203.52
194.152	2192.14
194.227	2187.29
194.302	2179.06
194.378	2181.48
194.453	2180.53
194.529	2193.95
194.604	2180.34
194.679	2172.26
194.755	2151.23
194.83	2164.13
194.905	2161.71
194.981	2171.13
195.056	2164.94
195.131	2174.22
195.207	2174.89
195.282	2166.85
195.357	2148.86
195.433	2163.61
195.508	2150.9
195.583	2156.28
195.659	2172.03
195.734	2180.93
195.809	2179.41
195.884	2187.73
195.96	2191.58
196.035	2205.95
196.11	2201.67
196.185	2214.56
196.261	2218.42
196.336	2252.53
196.411	2235.06
196.486	2240.63
196.561	2236.06
196.637	2246.15
196.712	2263.38
196.787	2265.14
196.862	2278.27
196.937	2288.88
197.013	2295.93
197.088	2306.73
197.163	2329.77
197.238	2349.06
197.313	2347.35
197.388	2360.86
197.464	2389.24
197.539	2399.42
197.614	2390.34
197.689	2403.24
197.764	2420.33
197.839	2441.08
197.914	2433.65
197.989	2456.12
198.065	2470.26
198.14	2519
198.215	2542.62
198.29	2549.91
198.365	2563.86
198.44	2577.62
198.515	2608.25
198.59	2623.06
198.665	2648.4
198.74	2658.55
198.815	2657.02
198.89	2679.17
198.965	2707.38
199.04	2705.52
199.115	2720.38
199.19	2765.49
199.265	2767.64
199.34	2777.55
199.415	2813.69
199.49	2834.12
199.565	2843.89
199.64	2867.14
199.715	2865.04
199.79	2874.24
199.865	2882.73
199.94	2879.68
200.015	2907.75
200.09	2909.85
200.165	2917.62
200.24	2925.72
200.315	2964.75
200.39	2975.43
200.464	2981.1
200.539	2985.01
200.614	3000.17
200.689	3027.21
200.764	3035.55
200.839	3054.61
200.914	3058.62
200.989	3046.21
201.063	3063.38
201.138	3045.75
201.213	3046.52
201.288	3026.83
201.363	3034.17
201.438	3034.79
201.512	3047.7
201.587	3031.01
201.662	3038.36
201.737	3052.57
201.812	3063.11
201.886	3027.8
201.961	3044.59
202.036	3034.2
202.111	3030.62
202.186	3005.61
202.26	2986.77
202.335	2965.17
202.41	2959.26
202.485	2943.34
202.559	2923.84
202.634	2898.39
202.709	2910.77
202.784	2893.76
202.858	2897.14
202.933	2878.31
203.008	2872.92
203.082	2859.01
203.157	2864.54
203.232	2826.71
203.306	2805.87
203.381	2778.27
203.456	2765.97
203.53	2746.18
203.605	2732.6
203.68	2715.4
203.754	2714.87
203.829	2708.96
203.904	2698.43
203.978	2698.39
204.053	2712.78
204.127	2712.16
204.202	2720.69
204.277	2716.59
204.351	2724.5
204.426	2730.27
204.5	2736.22
204.575	2718.84
204.65	2746.82
204.724	2757.98
204.799	2781.55
204.873	2799.72
204.948	2819.5
205.022	2827.12
205.097	2844.48
205.171	2883.23
205.246	2916.61
205.32	2942.01
205.395	2968.28
205.469	2987.78
205.544	3023.22
205.618	3041.01
205.693	3092.48
205.767	3119.76
205.842	3177.3
205.916	3206.97
205.991	3235.98
206.065	3287.51
206.14	3350.95
206.214	3392.83
206.289	3431.98
206.363	3492.65
206.438	3547.2
206.512	3605.37
206.586	3680.25
206.661	3742.47
206.735	3779.52
206.81	3842.81
206.884	3917.52
206.958	3968.36
207.033	4047.24
207.107	4120.8
207.181	4217.54
207.256	4279.3
207.33	4363.13
207.405	4448.38
207.479	4540.66
207.553	4623.18
207.628	4679.68
207.702	4762.76
207.776	4828.58
207.851	4907.82
207.925	5003.19
207.999	5080.17
208.073	5157.77
208.148	5236.39
208.222	5306.94
208.296	5421.01
208.371	5518.31
208.445	5613.66
208.519	5726.75
208.593	5824.24
208.668	5907.18
208.742	5997.94
208.816	6083.28
208.89	6183.53
208.965	6265.01
209.039	6361.84
209.113	6470.71
209.187	6578.69
209.261	6663.47
209.336	6776.89
209.41	6883.76
209.484	6968.5
209.558	7076.37
209.632	7178.55
209.707	7280.76
209.781	7388.84
209.855	7492.63
209.929	7601.51
210.003	7696.75
210.077	7785.42
210.151	7921.55
210.226	8039.3
210.3	8156.85
210.374	8271.52
210.448	8365.48
210.522	8466.23
210.596	8563.43
210.67	8659.97
210.744	8794.01
210.818	8914.7
210.892	9024.79
210.966	9112.59
211.041	9219.7
211.115	9299.95
211.189	9407.99
211.263	9511.85
211.337	9599.43
211.411	9706.97
211.485	9785.34
211.559	9880.94
211.633	9971.81
211.707	10024.13
211.781	10121.69
211.855	10167.69
211.929	10237.39
212.003	10299.19
212.077	10391.21
212.151	10489.41
212.225	10579.22
212.299	10651.11
212.373	10715.48
212.447	10792.54
212.52	10900.57
212.594	10979.89
212.668	11069.04
212.742	11133.85
212.816	11206.48
212.89	11286.86
212.964	11356.7
213.038	11430.87
213.112	11520.8
213.186	11610.59
213.26	11669.29
213.333	11703.03
213.407	11785.16
213.481	11867.81
213.555	11953.26
213.629	12011.78
213.703	12068.13
213.777	12144.53
213.85	12202.13
213.924	12312.66
213.998	12381.93
214.072	12450.19
214.146	12510.59
214.219	12582.61
214.293	12644.84
214.367	12710.59
214.441	12787.62
214.515	12841.51
214.588	12886.78
214.662	12906.59
214.736	12946.99
214.81	13014.67
214.883	13081.57
214.957	13126.5
215.031	13172.97
215.105	13217.8
215.178	13266.35
215.252	13313.64
215.326	13341.98
215.4	13370.67
215.473	13374.19
215.547	13404.84
215.621	13438.93
215.694	13497.11
215.768	13528.83
215.842	13574.48
215.915	13617.82
215.989	13645.59
216.063	13682.13
216.136	13737.47
216.21	13801.58
216.284	13865.02
216.357	13925.38
216.431	13968.38
216.504	14029.65
216.578	14101.38
216.652	14154.64
216.725	14205.89
216.799	14270
216.873	14323.41
216.946	14386.9
217.02	14438.09
217.093	14493.14
217.167	14523.22
217.24	14558.8
217.314	14604.16
217.387	14650.77
217.461	14687.55
217.535	14750.17
217.608	14787.92
217.682	14836.94
217.755	14893.43
217.829	14932.38
217.902	14975.67
217.976	15023.2
218.049	15059.98
218.123	15090.78
218.196	15149.92
218.27	15193.64
218.343	15222.95
218.417	15268.98
218.49	15316.85
218.563	15378.3
218.637	15423.18
218.71	15490.27
218.784	15551.83
218.857	15615.84
218.931	15670.21
219.004	15730.94
219.077	15788.44
219.151	15849.7
219.224	15893.9
219.298	15946.05
219.371	16002.88
219.444	16035.27
219.518	16088.29
219.591	16141.65
219.665	16222.18
219.738	16268.16
219.811	16308.46
219.885	16362.63
219.958	16421.58
220.031	16461.87
220.105	16518.45
220.178	16569.78
220.251	16613.83
220.325	16658.22
220.398	16701.4
220.471	16752.78
220.544	16802.09
220.618	16836.5
220.691	16884.5
220.764	16937.08
220.838	16984.36
220.911	17032.7
220.984	17109.23
221.057	17170.58
221.131	17225.23
221.204	17233.81
221.277	17299.84
221.35	17378.49
221.424	17419.69
221.497	17470.05
221.57	17526.92
221.643	17567.55
221.716	17616.85
221.79	17650.29
221.863	17693.96
221.936	17743.45
222.009	17782.63
222.082	17824.51
222.155	17864.12
222.229	17928.84
222.302	17972.02
222.375	18010.91
222.448	18051.83
222.521	18080.64
222.594	18105.51
222.667	18128.21
222.74	18172.54
222.814	18196.78
222.887	18224.73
222.96	18274.18
223.033	18308.2
223.106	18339.33
223.179	18382.51
223.252	18422.89
223.325	18464.24
223.398	18493.3
223.471	18519.27
223.544	18565.25
223.617	18596.86
223.69	18630.45
223.763	18640.91
223.837	18677.05
223.91	18710.88
223.983	18726.59
224.056	18743.74
224.129	18784.61
224.202	18829.62
224.275	18855.4
224.348	18879.88
224.42	18888.79
224.493	18891.59
224.566	18905.27
224.639	18931.1
224.712	18952.16
224.785	18965.75
224.858	18981.08
224.931	18998.81
225.004	19011
225.077	19024.74
225.15	19023.68
225.223	19036.93
225.296	19081.55
225.369	19083.87
225.442	19096.01
225.514	19123.38
225.587	19158.99
225.66	19166.56
225.733	19183.28
225.806	19204.77
225.879	19217.88
225.952	19235.42
226.025	19273.73
226.097	19308.67
226.17	19328.38
226.243	19323.32
226.316	19338.02
226.389	19366.98
226.461	19385.05
226.534	19422.01
226.607	19433.68
226.68	19472.76
226.753	19490.4
226.825	19484.28
226.898	19513.19
226.971	19523.02
227.044	19532.66
227.117	19542.44
227.189	19569.62
227.262	19587.06
227.335	19604.7
227.407	19615.06
227.48	19632.99
227.553	19642.77
227.626	19649.33
227.698	19662.1
227.771	19685.47
227.844	19696.99
227.916	19699.11
227.989	19696.26
228.062	19688.22
228.134	19728.5
228.207	19745.23
228.28	19748.55
228.352	19753.32
228.425	19761.66
228.498	19779.54
228.57	19777.8
228.643	19795.3
228.716	19791.1
228.788	19794.24
228.861	19794.24
228.934	19815.05
229.006	19814.04
229.079	19820.16
229.151	19819.39
229.224	19813.03
229.296	19815.54
229.369	19841.9
229.442	19867.73
229.514	19876.5
229.587	19898.13
229.659	19874.28
229.732	19875.2
229.804	19896.54
229.877	19925.12
229.949	19946.62
230.022	19976.93
230.094	19993.99
230.167	19997.26
230.239	19996.88
230.312	20000.73
230.384	20037.55
230.457	20044.01
230.529	20055.91
230.602	20062.52
230.674	20077.6
230.747	20098.42
230.819	20110.75
230.892	20084.73
230.964	20089.65
231.037	20099.43
231.109	20092.15
231.181	20105.98
231.254	20088.73
231.326	20088.2
231.399	20082.71
231.471	20063.43
231.544	20024.68
231.616	20028.25
231.688	20020.54
231.761	20014.66
231.833	20008.78
231.905	19978.47
231.978	19974.42
232.05	19976.59
232.122	19970.52
232.195	19949.79
232.267	19948.3
232.339	19940.45
232.412	19955.43
232.484	19945.7
232.556	19931.72
232.629	19956.11
232.701	19951.82
232.773	19960.2
232.846	19934.9
232.918	19925.46
232.99	19923.63
233.062	19941.31
233.135	19936.35
233.207	19919.92
233.279	19924.69
233.351	19918.52
233.424	19898.47
233.496	19872.55
233.568	19873.36
233.64	19851.53
233.713	19847.58
233.785	19839.58
233.857	19832.07
233.929	19797.37
234.001	19792.89
234.074	19800.89
234.146	19754.57
234.218	19742.72
234.29	19716.94
234.362	19705.66
234.434	19671.93
234.507	19647.74
234.579	19609.86
234.651	19587.79
234.723	19580.08
234.795	19563.64
234.867	19542.34
234.939	19549.57
235.012	19538.01
235.084	19522.35
235.156	19522.06
235.228	19492.66
235.3	19466.11
235.372	19446.78
235.444	19445.1
235.516	19405.1
235.588	19382.5
235.66	19364.38
235.732	19328.43
235.804	19370.84
235.876	19365.25
235.948	19364.43
236.02	19336.57
236.092	19310.74
236.164	19285.59
236.236	19256.1
236.308	19225.01
236.38	19217.74
236.452	19182.17
236.524	19169.26
236.596	19161.93
236.668	19140.83
236.74	19117.84
236.812	19099.72
236.884	19084.06
236.956	19061.94
237.028	19029.36
237.1	18993.8
237.172	18995.49
237.244	18995
237.316	18936.36
237.388	18902.82
237.46	18863.64
237.532	18854.1
237.604	18827.26
237.675	18817.09
237.747	18805.14
237.819	18779.4
237.891	18745.57
237.963	18712.56
238.035	18681.63
238.107	18609.68
238.178	18592.04
238.25	18572.28
238.322	18566.74
238.394	18525.92
238.466	18501.01
238.538	18491.23
238.609	18476.67
238.681	18427.04
238.753	18381.93
238.825	18360.15
238.897	18332.39
238.968	18334.18
239.04	18305.12
239.112	18314.03
239.184	18272.11
239.255	18237.99
239.327	18223.39
239.399	18199.82
239.471	18192.3
239.542	18167.34
239.614	18164.26
239.686	18106.43
239.758	18092.21
239.829	18052.26
239.901	18030.77
239.973	17991.92
240.044	17953.9
240.116	17918.29
240.188	17892.6
240.259	17864.22
240.331	17818.19
240.403	17799.83
240.474	17741.62
240.546	17695.16
240.618	17640.99
240.689	17611.79
240.761	17586.15
240.833	17567.84
240.904	17533.72
240.976	17501.19
241.048	17466.25
241.119	17438.97
241.191	17424.66
241.262	17413.38
241.334	17381.24
241.405	17350.83
241.477	17321.62
241.549	17300.37
241.62	17274.78
241.692	17250.78
241.763	17237.33
241.835	17200.66
241.906	17164.17
241.978	17118.73
242.049	17109.52
242.121	17086.77
242.192	17070.24
242.264	17024.7
242.335	16965.42
242.407	16937.51
242.478	16894.43
242.55	16870.57
242.621	16838.33
242.693	16797.6
242.764	16744.93
242.836	16699.48
242.907	16675.86
242.979	16644.54
243.05	16615.23
243.122	16587.47
243.193	16553.11
243.264	16504.33
243.336	16475.08
243.407	16458.16
243.479	16453.15
243.55	16423.46
243.622	16389.05
243.693	16352.8
243.764	16339.94
243.836	16301.23
243.907	16276.75
243.978	16246.91
244.05	16223.92
244.121	16171.72
244.192	16149.84
244.264	16111.62
244.335	16086.8
244.407	16033.2
244.478	16014.79
244.549	15974.64
244.62	15926.83
244.692	15896.41
244.763	15863.4
244.834	15827.49
244.906	15779
244.977	15750.95
245.048	15736.15
245.119	15698.75
245.191	15656.14
245.262	15599.16
245.333	15589.71
245.405	15553.18
245.476	15519.15
245.547	15479.38
245.618	15459.38
245.689	15431.13
245.761	15402.74
245.832	15366.98
245.903	15347.17
245.974	15316.75
246.045	15279.44
246.117	15266.09
246.188	15212.68
246.259	15167.66
246.33	15138.02
246.401	15108.85
246.473	15061.13
246.544	15013.85
246.615	14997.6
246.686	14966.94
246.757	14952.53
246.828	14906.98
246.899	14893.63
246.97	14852.36
247.042	14824.02
247.113	14795.19
247.184	14790.9
247.255	14751.14
247.326	14716.48
247.397	14682.35
247.468	14649.62
247.539	14627.3
247.61	14580.01
247.681	14567.04
247.752	14564.25
247.823	14531.08
247.894	14510.21
247.965	14473.72
248.037	14436.79
248.108	14387.67
248.179	14357.3
248.25	14328.14
248.321	14308.57
248.392	14264.8
248.463	14255.54
248.534	14226.04
248.605	14210.08
248.675	14170.17
248.746	14148.28
248.817	14140.43
248.888	14124.9
248.959	14076.07
249.03	14051.68
249.101	14028.83
249.172	13991.08
249.243	13938.54
249.314	13925.96
249.385	13891.68
249.456	13873.03
249.527	13852.3
249.598	13835.28
249.669	13808.04
249.739	13787.12
249.81	13764.75
249.881	13723.15
249.952	13698.42
250.023	13667.04
250.094	13629.15
250.165	13597.04
250.235	13573.86
250.306	13542.14
250.377	13497.79
250.448	13481.2
250.519	13437
250.59	13427.36
250.66	13398.63
250.731	13392.79
250.802	13361.36
250.873	13347.43
250.944	13331.14
251.014	13295.75
251.085	13296.81
251.156	13283.36
251.227	13267.84
251.297	13264.27
251.368	13253.48
251.439	13243.35
251.51	13234
251.58	13198.04
251.651	13163.57
251.722	13155.67
251.792	13110.01
251.863	13087.16
251.934	13077.52
252.005	13088.23
252.075	13067.26
252.146	13064.36
252.217	13047.92
252.287	13037.8
252.358	13008.44
252.429	12994.99
252.499	12965.59
252.57	12940.76
252.641	12922.49
252.711	12895.88
252.782	12851.92
252.852	12851.05
252.923	12821.65
252.994	12798.94
253.064	12792.96
253.135	12754.4
253.205	12719.02
253.276	12716.94
253.347	12715.5
253.417	12690.67
253.488	12659.48
253.558	12628.73
253.629	12603.32
253.699	12588
253.77	12576.72
253.841	12552.76
253.911	12536.71
253.982	12518.58
254.052	12500.21
254.123	12481.9
254.193	12463.05
254.264	12479.39
254.334	12446.47
254.405	12416.44
254.475	12382.69
254.546	12357.63
254.616	12364.13
254.687	12346.11
254.757	12334.01
254.827	12306.58
254.898	12279.15
254.968	12255.24
255.039	12229.5
255.109	12217.79
255.18	12185.21
255.25	12137.73
255.321	12127.17
255.391	12091.6
255.461	12095.69
255.532	12049.76
255.602	12023.1
255.673	11982.13
255.743	11948.63
255.813	11899.13
255.884	11884.09
255.954	11867.12
256.024	11867.22
256.095	11840.81
256.165	11807.07
256.235	11791.93
256.306	11766.29
256.376	11759.93
256.446	11746.82
256.517	11731.1
256.587	11723.63
256.657	11703.68
256.728	11689.12
256.798	11667.39
256.868	11644.93
256.938	11614.08
257.009	11613.11
257.079	11607.81
257.149	11619.62
257.219	11577.88
257.29	11571.18
257.36	11534.26
257.43	11531.04
257.5	11483.13
257.571	11462.16
257.641	11451.22
257.711	11420.67
257.781	11416.28
257.852	11404.57
257.922	11365.58
257.992	11347.94
258.062	11321.24
258.132	11311.74
258.202	11293.14
258.273	11272.95
258.343	11275.5
258.413	11257.57
258.483	11233.52
258.553	11194.63
258.623	11169.38
258.693	11159.02
258.764	11154.49
258.834	11154.39
258.904	11140.17
258.974	11113
259.044	11094.73
259.114	11083.65
259.184	11070.25
259.254	11045.53
259.324	11007.84
259.394	11007.12
259.464	11005.34
259.535	10985.77
259.605	10963.31
259.675	10936.91
259.745	10921.49
259.815	10886.84
259.885	10858.36
259.955	10870.27
260.025	10853.55
260.095	10833.79
260.165	10820.39
260.235	10822.85
260.305	10795.72
260.375	10764.25
260.445	10775.87
260.515	10769.51
260.585	10767.77
260.655	10751.82
260.725	10743.87
260.795	10735.63
260.865	10734.18
260.934	10706.72
261.004	10694.05
261.074	10681.23
261.144	10680.75
261.214	10679.4
261.284	10665.52
261.354	10659.02
261.424	10625.28
261.494	10627.6
261.564	10612.08
261.634	10606.44
261.703	10565.63
261.773	10557.87
261.843	10547.27
261.913	10528.48
261.983	10501.79
262.053	10488.49
262.123	10468.5
262.192	10436.6
262.262	10434.77
262.332	10402.01
262.402	10400.47
262.472	10390.93
262.541	10354.85
262.611	10351.76
262.681	10321.41
262.751	10319.43
262.821	10308.11
262.89	10286.96
262.96	10277.13
263.03	10280.02
263.1	10265.28
263.169	10258.68
263.239	10254.92
263.309	10263.31
263.379	10260.8
263.448	10251.36
263.518	10240.86
263.588	10225.2
263.657	10229.87
263.727	10221.73
263.797	10206.94
263.867	10184.59
263.936	10154.29
264.006	10155.01
264.076	10135.93
264.145	10119.03
264.215	10094.07
264.285	10084.82
264.354	10049.04
264.424	10024.42
264.494	9989.98
264.563	9969.36
264.633	9969.31
264.702	9954.52
264.772	9917.43
264.842	9889.39
264.911	9880.72
264.981	9855.05
265.05	9842.86
265.12	9830.1
265.19	9812.56
265.259	9808.18
265.329	9809.24
265.398	9799.8
265.468	9810.92
265.537	9793.54
265.607	9792.19
265.676	9790.07
265.746	9782.6
265.815	9788.38
265.885	9775.28
265.955	9755.68
266.024	9739.5
266.094	9705.35
266.163	9707.52
266.232	9708.19
266.302	9698.27
266.371	9684.31
266.441	9673.18
266.51	9669.18
266.58	9648.47
266.649	9629.74
266.719	9627.72
266.788	9608.26
266.858	9616.44
266.927	9579.94
266.996	9567.32
267.066	9556.97
267.135	9531.35
267.205	9523.98
267.274	9514.39
267.343	9518.82
267.413	9509.48
267.482	9516.76
267.552	9523.5
267.621	9493.25
267.69	9465.8
267.76	9454.06
267.829	9447.56
267.898	9435.52
267.968	9413.22
268.037	9409.42
268.106	9402.92
268.176	9377.83
268.245	9365.69
268.314	9348.35
268.384	9350.52
268.453	9342.43
268.522	9335.55
268.592	9336.94
268.661	9320.67
268.73	9306.27
268.799	9281.86
268.869	9289.75
268.938	9258.36
269.007	9240.78
269.076	9239.1
269.146	9237.6
269.215	9231.25
269.284	9234.33
269.353	9214.54
269.422	9207.95
269.492	9189.65
269.561	9152.49
269.63	9150.85
269.699	9133.95
269.768	9120.32
269.838	9112.28
269.907	9110.74
269.976	9091.05
270.045	9060.72
270.114	9054.42
270.183	9045.03
270.253	9040.79
270.322	9013.83
270.391	9006.32
270.46	9011.96
270.529	9007.57
270.598	9006.08
270.667	8997.22
270.736	8975.32
270.806	8970.12
270.875	8969.01
270.944	8957.56
271.013	8982.73
271.082	8973.25
271.151	8976.52
271.22	8951.73
271.289	8944.41
271.358	8931.9
271.427	8926.41
271.496	8924.58
271.565	8908.74
271.634	8906.77
271.703	8907.11
271.772	8909.66
271.841	8894.11
271.91	8867.01
271.979	8857.48
272.048	8831.19
272.117	8830.28
272.186	8818.58
272.255	8825.9
272.324	8823.97
272.393	8821.52
272.462	8801.98
272.531	8796.44
272.6	8781.71
272.669	8786.33
272.738	8768.18
272.807	8763.13
272.876	8741.52
272.945	8761.02
273.013	8762.84
273.082	8758.8
273.151	8734.74
273.22	8725.78
273.289	8717.22
273.358	8722.56
273.427	8709.76
273.496	8711.78
273.564	8708.55
273.633	8703.98
273.702	8681.02
273.771	8668.75
273.84	8666.44
273.909	8667.35
273.977	8666.49
274.046	8659.75
274.115	8664.47
274.184	8647.48
274.253	8634.05
274.322	8648.2
274.39	8619.95
274.459	8608.54
274.528	8581.06
274.597	8578.32
274.665	8580.68
274.734	8591.65
274.803	8581.88
274.872	8575.62
274.94	8563.74
275.009	8618.15
275.078	8606.02
275.147	8603.95
275.215	8601.83
275.284	8611.08
275.353	8601.11
275.421	8572.43
275.49	8587.88
275.559	8576.19
275.627	8578.21
275.696	8574.7
275.765	8570.99
275.833	8561.94
275.902	8560.5
275.971	8569.3
276.039	8580.47
276.108	8578.45
276.177	8577.68
276.245	8568.29
276.314	8562.91
276.383	8573.3
276.451	8510.95
276.52	8514.94
276.588	8530.1
276.657	8533.13
276.725	8517.25
276.794	8520.52
276.863	8534.67
276.931	8505.46
277	8507.67
277.068	8513.2
277.137	8533.75
277.205	8523.94
277.274	8544.73
277.342	8554.21
277.411	8540.5
277.48	8525.91
277.548	8517.73
277.617	8518.94
277.685	8513.69
277.754	8515.33
277.822	8500.27
277.89	8513.02
277.959	8506.86
278.027	8481.74
278.096	8468.46
278.164	8496.57
278.233	8482.81
278.301	8471.06
278.37	8479
278.438	8470.49
278.507	8475.01
278.575	8444.74
278.643	8442.43
278.712	8421.26
278.78	8410.04
278.849	8419.28
278.917	8430.83
278.985	8422.6
279.054	8420.34
279.122	8430.73
279.191	8436.56
279.259	8433.29
279.327	8412.73
279.396	8434.25
279.464	8431.46
279.532	8443.49
279.601	8438
279.669	8438.24
279.737	8454.17
279.806	8455.56
279.874	8465.23
279.942	8463.31
280.011	8457.63
280.079	8468.46
280.147	8487.85
280.215	8488.04
280.284	8485.59
280.352	8475.15
280.42	8481.02
280.488	8472.93
280.557	8466.1
280.625	8462.2
280.693	8463.69
280.761	8464.7
280.83	8442.13
280.898	8455.32
280.966	8435.2
281.034	8402.82
281.102	8389.39
281.171	8378.18
281.239	8387.62
281.307	8380.3
281.375	8372.84
281.443	8399.16
281.512	8398.06
281.58	8400.89
281.648	8385.79
281.716	8386.65
281.784	8382.51
281.852	8382.61
281.92	8383
281.989	8394.26
282.057	8379.87
282.125	8420.59
282.193	8418.9
282.261	8422.03
282.329	8414.57
282.397	8415.68
282.465	8415.34
282.533	8430.93
282.601	8426.26
282.67	8409.23
282.738	8398.02
282.806	8402.44
282.874	8392.72
282.942	8390.94
283.01	8379.87
283.078	8388.77
283.146	8383.91
283.214	8392.29
283.282	8392.53
283.35	8400.56
283.418	8388.58
283.486	8393.06
283.554	8352.87
283.622	8355.32
283.69	8353.69
283.758	8352.05
283.826	8362.54
283.894	8372.69
283.962	8388.28
284.03	8399.93
284.098	8398.82
284.165	8394.44
284.233	8392.62
284.301	8384.58
284.369	8377.84
284.437	8374.38
284.505	8368.8
284.573	8380.15
284.641	8367.16
284.709	8375.44
284.777	8364.9
284.845	8373.32
284.912	8375.82
284.98	8379.09
285.048	8369.95
285.116	8372.17
285.184	8386.94
285.252	8378.28
285.319	8364.95
285.387	8357.97
285.455	8342.19
285.523	8344.02
285.591	8346.04
285.659	8352.1
285.726	8363.36
285.794	8353.11
285.862	8351.14
285.93	8349.84
285.997	8346.28
286.065	8346.95
286.133	8331.27
286.201	8328
286.269	8310.92
286.336	8301.82
286.404	8299.71
286.472	8310.34
286.539	8288.84
286.607	8270.31
286.675	8277.48
286.743	8288.3
286.81	8278.92
286.878	8287.39
286.946	8277.96
287.013	8275.89
287.081	8268.24
287.149	8252.94
287.216	8271.66
287.284	8264.68
287.352	8268.14
287.419	8265.88
287.487	8281.09
287.555	8289.03
287.622	8283.64
287.69	8293.07
287.758	8307.07
287.825	8301.44
287.893	8288.69
287.96	8301.92
288.028	8311.11
288.096	8315.68
288.163	8319.62
288.231	8314.62
288.298	8316.59
288.366	8334.54
288.433	8330.35
288.501	8324.87
288.569	8329.25
288.636	8321.93
288.704	8338.39
288.771	8341.47
288.839	8333.87
288.906	8327.56
288.974	8336.13
289.041	8329.54
289.109	8317.46
289.176	8320.78
289.244	8329.16
289.311	8343.93
289.379	8347.82
289.446	8355.38
289.514	8347.01
289.581	8344.41
289.649	8342.87
289.716	8346.24
289.783	8338.92
289.851	8362.69
289.918	8362.31
289.986	8371.21
290.053	8375.92
290.121	8370.58
290.188	8373.47
290.255	8402
290.323	8395.55
290.39	8393.24
290.458	8406.62
290.525	8424.81
290.592	8424.47
290.66	8422.11
290.727	8416.38
290.794	8431.06
290.862	8432.12
290.929	8439.48
290.996	8441.21
291.064	8453.58
291.131	8465.42
291.198	8474.71
291.266	8473.7
291.333	8474.61
291.4	8477.35
291.468	8490.35
291.535	8489.43
291.602	8495.06
291.669	8492.95
291.737	8498.43
291.804	8493.38
291.871	8511.33
291.938	8518.45
292.006	8550.31
292.073	8566.87
292.14	8575.77
292.207	8566
292.275	8561
292.342	8562.58
292.409	8586.6
292.476	8610.33
292.543	8605.81
292.611	8616.49
292.678	8626.98
292.745	8656.63
292.812	8669.09
292.879	8669.62
292.946	8675.06
293.014	8688.68
293.081	8697.49
293.148	8711.15
293.215	8730.12
293.282	8721.98
293.349	8732.76
293.416	8708.65
293.484	8723.47
293.551	8736.37
293.618	8755.82
293.685	8780.36
293.752	8784.45
293.819	8778.63
293.886	8766.93
293.953	8767.51
294.02	8772.85
294.087	8785.22
294.154	8781.28
294.221	8796.1
294.288	8794.27
294.356	8812.85
294.423	8819.59
294.49	8808.14
294.557	8822.77
294.624	8812.81
294.691	8837.55
294.758	8839.81
294.825	8849.96
294.892	8838.41
294.959	8835.62
295.026	8842.55
295.093	8839.42
295.16	8840.1
295.226	8848.62
295.293	8873.7
295.36	8882.65
295.427	8888.91
295.494	8895.99
295.561	8903.93
295.628	8924.1
295.695	8938.16
295.762	8935.85
295.829	8948.46
295.896	8969.45
295.963	8977.15
296.03	8991.83
296.096	8995.25
296.163	9005.65
296.23	9020.14
296.297	9031.74
296.364	9033.91
296.431	9042.91
296.498	9037.42
296.564	9059.66
296.631	9062.94
296.698	9047.48
296.765	9061.92
296.832	9056.72
296.899	9045.51
296.965	9059.95
297.032	9039.44
297.099	9062.07
297.166	9069.67
297.233	9066.54
297.299	9050.42
297.366	9050.18
297.433	9052.1
297.5	9062.6
297.566	9067.37
297.633	9068.47
297.7	9078.68
297.767	9074.59
297.833	9077.04
297.9	9088.89
297.967	9073.24
298.033	9083.35
298.1	9107.91
298.167	9103
298.234	9105.55
298.3	9119.46
298.367	9119.75
298.434	9131.98
298.5	9120.37
298.567	9125
298.634	9115.8
298.7	9141.56
298.767	9147
298.834	9161.87
298.9	9153.69
298.967	9143.1
299.033	9152.34
299.1	9160.53
299.167	9178.1
299.233	9178
299.3	9185.27
299.366	9202.79
299.433	9217.19
299.5	9196.92
299.566	9201.11
299.633	9220.18
299.699	9224.46
299.766	9217.96
299.832	9218.25
299.899	9224.32
299.965	9230.29
300.032	9234.38
300.099	9238.18
300.165	9247.09
300.232	9245.98
300.298	9247.53
300.365	9258.94
300.431	9257.68
300.498	9253.25
300.564	9261.58
300.631	9268.08
300.697	9286.62
300.763	9290.04
300.83	9282.19
300.896	9289.13
300.963	9300.68
301.029	9304.87
301.096	9314.31
301.162	9325.48
301.229	9319.89
301.295	9312.77
301.361	9317.82
301.428	9321.34
301.494	9308.63
301.561	9308.15
301.627	9307.23
301.693	9309.97
301.76	9314.69
301.826	9309.45
301.892	9322.74
301.959	9330.15
302.025	9332.66
302.092	9319.46
302.158	9319.7
302.224	9325.72
302.291	9327.31
302.357	9319.32
302.423	9313.63
302.49	9307.76
302.556	9322.78
302.622	9327.07
302.688	9336.56
302.755	9352.98
302.821	9361.6
302.887	9375.51
302.954	9371.56
303.02	9379.07
303.086	9385.96
303.152	9383.26
303.219	9382.3
303.285	9386.97
303.351	9395.88
303.417	9391.98
303.483	9395.06
303.55	9393.81
303.616	9395.11
303.682	9389.96
303.748	9394.25
303.815	9408.6
303.881	9417.6
303.947	9407.39
304.013	9404.79
304.079	9399.88
304.145	9373.44
304.212	9370.94
304.278	9367.33
304.344	9366.03
304.41	9352.55
304.476	9344.84
304.542	9344.22
304.608	9352.4
304.674	9334.15
304.741	9323.46
304.807	9331.26
304.873	9329.62
304.939	9344.21
305.005	9326.11
305.071	9328.56
305.137	9325.05
305.203	9303.14
305.269	9295.67
305.335	9301.4
305.401	9303.76
305.467	9306.51
305.533	9321
305.599	9335.74
305.666	9340.55
305.732	9342.29
305.798	9357.12
305.864	9386.88
305.93	9389.86
305.996	9384.57
306.062	9379.9
306.128	9378.4
306.194	9368.87
306.259	9366.85
306.325	9361.12
306.391	9366.8
306.457	9372.91
306.523	9376.28
306.589	9395.45
306.655	9387.65
306.721	9368.19
306.787	9354.66
306.853	9362.51
306.919	9343.98
306.985	9330.01
307.051	9320.48
307.117	9313.83
307.183	9308.54
307.248	9271.41
307.314	9275.21
307.38	9279.64
307.446	9292.69
307.512	9279.83
307.578	9283.78
307.644	9281.38
307.709	9283.54
307.775	9288.16
307.841	9287.01
307.907	9287.25
307.973	9268.66
308.039	9266.83
308.104	9267.84
308.17	9270.2
308.236	9253.11
308.302	9259.08
308.368	9246.22
308.433	9250.27
308.499	9240.21
308.565	9228.31
308.631	9236.79
308.696	9209.34
308.762	9200.53
308.828	9195.86
308.894	9180.75
308.959	9156.19
309.025	9146.03
309.091	9138.04
309.156	9123.88
309.222	9124.7
309.288	9112.14
309.354	9089.37
309.419	9089.75
309.485	9078.63
309.551	9083.88
309.616	9071.02
309.682	9068.81
309.748	9063.95
309.813	9050.42
309.879	9045.7
309.945	9029.91
310.01	9020.28
310.076	9033.42
310.141	9026.54
310.207	9009.35
310.273	9012.87
310.338	9017.63
310.404	9001.94
310.469	8986.92
310.535	8979.21
310.601	8956.54
310.666	8963.76
310.732	8978.78
310.797	8967.71
310.863	8961.64
310.928	8956.25
310.994	8964.72
311.059	8962.27
311.125	8957.89
311.191	8972.19
311.256	8951.88
311.322	8960.92
311.387	8945.33
311.453	9317.48
311.518	9290
311.584	9288.12
311.649	9293.85
311.715	9283.12
311.78	9283.41
311.846	9274.17
311.911	9276.86
311.976	9276.52
312.042	9261.89
312.107	9243.02
312.173	9233.73
312.238	9227.52
312.304	9223.96
312.369	9207.06
312.434	9189.44
312.5	9182.66
312.565	9149.34
312.631	9169.51
312.696	9161.66
312.761	9163.35
312.827	8775.31
312.892	8815.16
312.958	8809.97
313.023	8804.38
313.088	8807.61
313.154	8794.13
313.219	8793.22
313.284	8786.67
313.35	8784.36
313.415	8770.98
313.48	8768.96
313.546	8774.97
313.611	8791.58
313.676	8778.3
313.741	8776.42
313.807	8786.53
313.872	8791.34
313.937	8801.69
314.003	8804.34
314.068	8805.44
314.133	8811.6
314.198	8803.23
314.264	8780.75
314.329	8770.83
314.394	8768.18
314.459	8761.78
314.525	8783.68
314.59	8775.88
314.655	8759.76
314.72	8767.08
314.785	8771.65
314.851	8768.47
314.916	8751.63
314.981	8732.18
315.046	8728.28
315.111	8717.17
315.176	8704.51
315.242	8707.06
315.307	8698.92
315.372	8682.27
315.437	8671.25
315.502	8663.55
315.567	8673.22
315.632	8659.22
315.698	8663.31
315.763	8658.35
315.828	8655.03
315.893	8650.02
315.958	8648.1
316.023	8646.94
316.088	8623.02
316.153	8599.59
316.218	8592.85
316.283	8574.95
316.348	8552.58
316.413	8546.85
316.479	8527.75
316.544	8497.82
316.609	8464.43
316.674	8435.37
316.739	8400.05
316.804	8369.41
316.869	8331.35
316.934	8294.01
316.999	8264.37
317.064	8213.72
317.129	8168.92
317.194	8130.39
317.259	8081.99
317.324	8029.8
317.389	7982.86
317.454	7946.54
317.518	7918.74
317.583	7896.86
317.648	7875.12
317.713	7840.92
317.778	7781.77
317.843	7762.15
317.908	7724.4
317.973	7691.51
318.038	7659.92
318.103	7622.81
318.168	7594.77
318.233	7566.36
318.297	7520.06
318.362	7486.65
318.427	7454.3
318.492	7432.72
318.557	7387.68
318.622	7364.46
318.687	7344.9
318.751	7304.4
318.816	7276.28
318.881	7237.83
318.946	7179.34
319.011	7131.52
319.075	7096.83
319.14	7065.27
319.205	7017.93
319.27	6984.74
319.335	6935.21
319.399	6892.31
319.464	6869.02
319.529	6816.56
319.594	6782.69
319.658	6752.34
319.723	6710.55
319.788	6684.77
319.853	6632.31
319.917	6600.29
319.982	6545.35
320.047	6507.84
320.112	6486.15
320.176	6435.25
320.241	6404.05
320.306	6377.4
320.37	6340.63
320.435	6310.1
320.5	6282.65
320.564	6245.35
320.629	6203.99
320.694	6181.05
320.758	6147.37
320.823	6102.6
320.888	6076.64
320.952	6026.6
321.017	5986.92
321.082	5952.48
321.146	5915.15
321.211	5881.53
321.275	5844.55
321.34	5803.79
321.405	5762.88
321.469	5719.77
321.534	5683.95
321.598	5636.15
321.663	5604.83
321.727	5577.5
321.792	5529.66
321.857	5488.14
321.921	5453.58
321.986	5411.8
322.05	5352.28
322.115	5312.22
322.179	5270.11
322.244	5215.21
322.308	5183.73
322.373	5138.37
322.437	5093.67
322.502	5069.85
322.566	5022.96
322.631	4991.31
322.695	4955.44
322.76	4910.67
322.824	4875.9
322.889	4832.39
322.953	4785.68
323.018	4721.58
323.082	4656.68
323.146	4606.39
323.211	4554.28
323.275	4508.86
323.34	4468.58
323.404	4434.48
323.468	4390.62
323.533	4348
323.597	4303.5
323.662	4249.93
323.726	4218.03
323.79	4172.09
323.855	4102.97
323.919	4060.76
323.983	4010.32
324.048	3942.58
324.112	4082.97
324.177	3954.5
324.241	3747.84
324.305	3550.35
324.37	3352.96
324.434	3162.87
324.498	3121.35
324.562	3070.59
324.627	3008.73
324.691	2952.99
324.755	2890.47
324.82	2816.47
324.884	2741.01
324.948	2674.38
325.012	2582.6
325.077	2457.09
