Data from 20250703_urea_0.1M_MAYP1162681_14-41-05-726.txt Node
Date: Thu Jul 03 14:41:05 BST 2025
User: adleo
Spectrometer: MAYP116268
Trigger mode: 0
Integration Time (sec): 1.000000E0
Scans to average: 1
Electric dark correction enabled: true
Nonlinearity correction enabled: true
Boxcar width: 10
XAxis mode: Wavelengths
Number of Pixels in Spectrum: 2068
>>>>>Begin Spectral Data<<<<<
179.565	1257.46
179.642	1316.26
179.718	1362.87
179.795	1405.67
179.871	1442.1
179.948	1462.55
180.024	1484.3
180.101	1505.91
180.177	1523.45
180.254	1548.93
180.33	1571.07
180.407	1629.91
180.483	1733.48
180.56	1829.36
180.636	1918.01
180.712	1904.93
180.789	1919.86
180.865	1934.26
180.942	1942.86
181.018	1953.18
181.095	1967.55
181.171	1976.29
181.248	1979.15
181.324	1993.61
181.4	1999.55
181.477	2010.73
181.553	2024.89
181.63	2045.73
181.706	2062.37
181.782	2069.12
181.859	2070.64
181.935	2077.21
182.011	2072.83
182.088	2085.77
182.164	2103.9
182.24	2116.5
182.317	2128.15
182.393	2124.06
182.469	2139.04
182.546	2155.51
182.622	2161.12
182.698	2154.41
182.775	2163.69
182.851	2174.87
182.927	2168.35
183.003	2163.4
183.08	2157.03
183.156	2167.54
183.232	2165.69
183.308	2157.84
183.385	2166.92
183.461	2182.2
183.537	2182.91
183.613	2196.56
183.69	2190.76
183.766	2182.81
183.842	2193.52
183.918	2199.37
183.995	2212.59
184.071	2212.17
184.147	2201.32
184.223	2188.71
184.299	2203.18
184.375	2194.05
184.452	2202.76
184.528	2255.92
184.604	2268.57
184.68	2279.94
184.756	2286.03
184.832	2288.94
184.908	2293.22
184.985	2292.22
185.061	2274.14
185.137	2286.66
185.213	2275
185.289	2274.9
185.365	2266.2
185.441	2261.96
185.517	2274.48
185.593	2270.06
185.669	2271.44
185.745	2285.14
185.822	2302.88
185.898	2294.89
185.974	2301.4
186.05	2293.64
186.126	2257.85
186.202	2252.43
186.278	2248.43
186.354	2238.1
186.43	2246.29
186.506	2243.1
186.582	2241.92
186.658	2249.05
186.734	2226.59
186.81	2229.16
186.886	2230.87
186.962	2242.48
187.038	2240.29
187.114	2232.77
187.19	2242.1
187.266	2233.11
187.341	2231.82
187.417	2226.4
187.493	2228.35
187.569	2234.11
187.645	2230.54
187.721	2218.88
187.797	2223.21
187.873	2227.87
187.949	2222.88
188.025	2215.4
188.101	2220.73
188.176	2226.82
188.252	2221.3
188.328	2229.77
188.404	2230.43
188.48	2223.73
188.556	2218.64
188.632	2219.11
188.707	2222.49
188.783	2218.16
188.859	2210.6
188.935	2201.75
189.011	2208.69
189.086	2200.46
189.162	2193.71
189.238	2187.43
189.314	2183.95
189.39	2179.1
189.465	2173.25
189.541	2190.28
189.617	2176.06
189.693	2170.97
189.768	2173.68
189.844	2201.95
189.92	2194.96
189.996	2202.86
190.071	2212.57
190.147	2211.76
190.223	2221.47
190.298	2212.09
190.374	2197.58
190.45	2209.33
190.526	2217.18
190.601	2211.09
190.677	2210.14
190.753	2235.56
190.828	2240.46
190.904	2258.12
190.98	2275.54
191.055	2286.96
191.131	2279.39
191.207	2299.71
191.282	2308.75
191.358	2300.94
191.433	2284.85
191.509	2299.07
191.585	2295.5
191.66	2299.6
191.736	2307.64
191.811	2295.69
191.887	2307.64
191.963	2333.53
192.038	2342.15
192.114	2340.67
192.189	2346.09
192.265	2345.14
192.34	2324.67
192.416	2324.76
192.491	2316.67
192.567	2315.1
192.642	2317.1
192.718	2317.96
192.793	2306.1
192.869	2301.92
192.944	2302.96
193.02	2311.44
193.095	2313.39
193.171	2319.1
193.246	2321.19
193.322	2317.48
193.397	2317.01
193.473	2307.68
193.548	2287.59
193.624	2291.06
193.699	2291.73
193.775	2305.87
193.85	2306.54
193.925	2317.34
194.001	2315.72
194.076	2312.82
194.152	2307.2
194.227	2299.73
194.302	2287.5
194.378	2290.6
194.453	2289.07
194.529	2302.45
194.604	2285.69
194.679	2277.51
194.755	2259.19
194.83	2270.91
194.905	2268.15
194.981	2280.28
195.056	2273.72
195.131	2283.43
195.207	2283.57
195.282	2273.58
195.357	2255.77
195.433	2272.81
195.508	2257.39
195.583	2266.33
195.659	2277.04
195.734	2281.38
195.809	2280.9
195.884	2290.75
195.96	2292.79
196.035	2310.02
196.11	2306.5
196.185	2321.25
196.261	2326.87
196.336	2362.09
196.411	2346.57
196.486	2353.47
196.561	2347.42
196.637	2355.84
196.712	2373.89
196.787	2377.23
196.862	2392.98
196.937	2404.78
197.013	2409.16
197.088	2420.2
197.163	2440.59
197.238	2459.17
197.313	2461.02
197.388	2472.83
197.464	2505.08
197.539	2514.02
197.614	2503.55
197.689	2517.6
197.764	2533.7
197.839	2554.89
197.914	2545.7
197.989	2568.7
198.065	2582.79
198.14	2633.83
198.215	2659.36
198.29	2665.99
198.365	2677.66
198.44	2688.95
198.515	2714.24
198.59	2731.11
198.665	2761.13
198.74	2770.23
198.815	2771.71
198.89	2794.39
198.965	2825.94
199.04	2822.94
199.115	2843.14
199.19	2889.93
199.265	2887.17
199.34	2898.61
199.415	2931.66
199.49	2955.62
199.565	2966.59
199.64	2990.85
199.715	2987.46
199.79	2994.85
199.865	3006.3
199.94	3009.06
200.015	3040.77
200.09	3048.4
200.165	3056.12
200.24	3063.23
200.315	3105.23
200.39	3120.96
200.464	3127.35
200.539	3128.74
200.614	3143.04
200.689	3164.84
200.764	3171.61
200.839	3196.83
200.914	3204.08
200.989	3194.44
201.063	3208.51
201.138	3189.49
201.213	3189.97
201.288	3172.28
201.363	3178.95
201.438	3176.38
201.512	3191.16
201.587	3175.46
201.662	3180.47
201.737	3192.68
201.812	3197.74
201.886	3166.33
201.961	3178.6
202.036	3167.53
202.111	3169.3
202.186	3139.65
202.26	3125.91
202.335	3100.4
202.41	3093.77
202.485	3076.99
202.559	3060.25
202.634	3030.73
202.709	3044.6
202.784	3027.87
202.858	3031.87
202.933	3016.23
203.008	3016.33
203.082	3000.88
203.157	3005.89
203.232	2968.19
203.306	2954.16
203.381	2932.13
203.456	2917.11
203.53	2904.32
203.605	2897.46
203.68	2884.68
203.754	2897.21
203.829	2896.4
203.904	2895.3
203.978	2901.93
204.053	2929.02
204.127	2938.93
204.202	2968.3
204.277	2977.08
204.351	2997.73
204.426	3019.43
204.5	3047.05
204.575	3044.52
204.65	3094.77
204.724	3130.81
204.799	3183.02
204.873	3221.54
204.948	3267.68
205.022	3307.18
205.097	3352.56
205.171	3421.67
205.246	3487.38
205.32	3546.09
205.395	3610.19
205.469	3671
205.544	3748.75
205.618	3803.57
205.693	3895.04
205.767	3958.51
205.842	4062.3
205.916	4143.95
205.991	4225.59
206.065	4319.39
206.14	4432.7
206.214	4525
206.289	4617.83
206.363	4734.1
206.438	4846.26
206.512	4965.85
206.586	5100.53
206.661	5230.39
206.735	5333.11
206.81	5464.16
206.884	5607.2
206.958	5725.58
207.033	5878.15
207.107	6025.83
207.181	6199.71
207.256	6336.04
207.33	6503.6
207.405	6668.18
207.479	6839.48
207.553	6996.72
207.628	7136.39
207.702	7308.46
207.776	7463.71
207.851	7629.21
207.925	7811.56
207.999	7981.95
208.073	8152.26
208.148	8322.12
208.222	8476.87
208.296	8681.25
208.371	8867.1
208.445	9056.18
208.519	9268.98
208.593	9462.43
208.668	9639.9
208.742	9820.71
208.816	9996.87
208.89	10198.61
208.965	10374.22
209.039	10569.58
209.113	10778.38
209.187	10990.06
209.261	11167.85
209.336	11373.33
209.41	11586.76
209.484	11771.45
209.558	11974.88
209.632	12171.96
209.707	12368.7
209.781	12574.8
209.855	12766.4
209.929	12964.18
210.003	13151.35
210.077	13324.6
210.151	13552.5
210.226	13760.79
210.3	13975.68
210.374	14182.38
210.448	14358.18
210.522	14549.69
210.596	14732.58
210.67	14905
210.744	15127.4
210.818	15330.1
210.892	15526.42
210.966	15683.17
211.041	15871.44
211.115	16027.61
211.189	16215.53
211.263	16398.69
211.337	16565.02
211.411	16757.32
211.485	16915.69
211.559	17090.74
211.633	17260.48
211.707	17381.01
211.781	17547.76
211.855	17658.31
211.929	17802.32
212.003	17939.71
212.077	18100.24
212.151	18260.09
212.225	18425.87
212.299	18561.53
212.373	18699.16
212.447	18826.43
212.52	18999.1
212.594	19142.42
212.668	19300.97
212.742	19424.24
212.816	19557.54
212.89	19687.7
212.964	19811.75
213.038	19945.62
213.112	20077.09
213.186	20216.85
213.26	20333.09
213.333	20408.8
213.407	20540.85
213.481	20668.61
213.555	20800.03
213.629	20909.24
213.703	21017.01
213.777	21130.95
213.85	21226.53
213.924	21375.28
213.998	21493.37
214.072	21594.45
214.146	21681.06
214.219	21780.94
214.293	21879.03
214.367	21980.02
214.441	22093.78
214.515	22187.2
214.588	22260.52
214.662	22317.94
214.736	22397.62
214.81	22488.3
214.883	22594.84
214.957	22676.02
215.031	22755.09
215.105	22811.78
215.178	22878.99
215.252	22950.59
215.326	22993.02
215.4	23044.27
215.473	23074.31
215.547	23134.68
215.621	23186.81
215.694	23271.3
215.768	23325.93
215.842	23384.28
215.915	23438.48
215.989	23479.38
216.063	23529.25
216.136	23603.32
216.21	23676.67
216.284	23745.35
216.357	23812.58
216.431	23868.82
216.504	23933.06
216.578	24012.84
216.652	24092.08
216.725	24144.65
216.799	24217.4
216.873	24285.41
216.946	24356.26
217.02	24402.86
217.093	24442.7
217.167	24479.36
217.24	24501.12
217.314	24541.4
217.387	24586.36
217.461	24621.19
217.535	24679.56
217.608	24703.87
217.682	24736.05
217.755	24785.5
217.829	24804.13
217.902	24844.37
217.976	24871.58
218.049	24899.47
218.123	24920.36
218.196	24960.84
218.27	24994.09
218.343	25009.44
218.417	25043.31
218.49	25067.34
218.563	25110.14
218.637	25154.87
218.71	25214.76
218.784	25267.75
218.857	25323.39
218.931	25365.9
219.004	25415.13
219.077	25449.63
219.151	25490.65
219.224	25529.07
219.298	25553.1
219.371	25602.28
219.444	25618.84
219.518	25650.2
219.591	25680.27
219.665	25728.3
219.738	25758.23
219.811	25778.74
219.885	25806.78
219.958	25845.93
220.031	25863.93
220.105	25893.47
220.178	25913.26
220.251	25917.9
220.325	25930.59
220.398	25938.41
220.471	25950.33
220.544	25968.58
220.618	25979.78
220.691	26009.81
220.764	26019.94
220.838	26052.29
220.911	26052.87
220.984	26085.26
221.057	26112.53
221.131	26119.63
221.204	26103.21
221.277	26124.31
221.35	26167.91
221.424	26171.92
221.497	26172.93
221.57	26185.58
221.643	26209.91
221.716	26222.13
221.79	26224.68
221.863	26244.04
221.936	26253.75
222.009	26255.44
222.082	26258.04
222.155	26252.88
222.229	26266.11
222.302	26280.21
222.375	26276.73
222.448	26293.68
222.521	26309.42
222.594	26314.97
222.667	26312.51
222.74	26321.39
222.814	26322.07
222.887	26314.68
222.96	26321.87
223.033	26327.47
223.106	26337.9
223.179	26337.71
223.252	26342.49
223.325	26345.67
223.398	26330.56
223.471	26322.31
223.544	26329.16
223.617	26326.5
223.69	26330.7
223.763	26310.43
223.837	26302.36
223.91	26308.69
223.983	26285.95
224.056	26245.44
224.129	26232.17
224.202	26230.04
224.275	26209.57
224.348	26173.08
224.42	26150.97
224.493	26123.06
224.566	26106.75
224.639	26094.05
224.712	26068.94
224.785	26040.41
224.858	26014.88
224.931	25996.43
225.004	25965.83
225.077	25941.84
225.15	25903.85
225.223	25883.24
225.296	25887.01
225.369	25850.66
225.442	25805.53
225.514	25784.68
225.587	25771.55
225.66	25747.99
225.733	25723.13
225.806	25713.43
225.879	25698.42
225.952	25657.2
226.025	25654.84
226.097	25646.73
226.17	25615.74
226.243	25563.86
226.316	25538.72
226.389	25518.4
226.461	25492.77
226.534	25473.95
226.607	25449.68
226.68	25441.28
226.753	25417.53
226.825	25366.08
226.898	25348.52
226.971	25321.78
227.044	25302.67
227.117	25284.82
227.189	25261.17
227.262	25258.76
227.335	25236.7
227.407	25196.85
227.48	25179.91
227.553	25143.24
227.626	25102.7
227.698	25079.68
227.771	25061.83
227.844	25027.91
227.916	25003.16
227.989	24966.54
228.062	24947
228.134	24941.88
228.207	24914.09
228.28	24872.6
228.352	24839.79
228.425	24811.56
228.498	24806.11
228.57	24759.36
228.643	24734.8
228.716	24698.14
228.788	24653.94
228.861	24616.65
228.934	24606.18
229.006	24579.84
229.079	24555.28
229.151	24519.34
229.224	24473.22
229.296	24443.7
229.369	24455.48
229.442	24446.36
229.514	24413.46
229.587	24400.39
229.659	24357.89
229.732	24335.02
229.804	24326.63
229.877	24331.21
229.949	24313.36
230.022	24292.57
230.094	24271.49
230.167	24242.16
230.239	24219.06
230.312	24187.95
230.384	24178.4
230.457	24153.94
230.529	24127.56
230.602	24097.32
230.674	24082.99
230.747	24075.42
230.819	24067.41
230.892	23991.93
230.964	23949.43
231.037	23927.83
231.109	23885.34
231.181	23864.65
231.254	23813.57
231.326	23769.83
231.399	23729.07
231.471	23691.07
231.544	23625.19
231.616	23609.67
231.688	23577.93
231.761	23533.08
231.833	23493.69
231.905	23445.61
231.978	23414.6
232.05	23370.81
232.122	23343.66
232.195	23302.09
232.267	23271.28
232.339	23223.98
232.412	23207.97
232.484	23172.19
232.556	23135.01
232.629	23124.74
232.701	23086.55
232.773	23062.49
232.846	23025.56
232.918	22986.36
232.99	22956.27
233.062	22939.59
233.135	22901.69
233.207	22860.71
233.279	22833.13
233.351	22811.29
233.424	22772.14
233.496	22722.24
233.568	22713.8
233.64	22649.68
233.713	22615.21
233.785	22579.2
233.857	22547.67
233.929	22502.88
234.001	22489.04
234.074	22471.88
234.146	22410.51
234.218	22376.33
234.29	22341.57
234.362	22303.44
234.434	22249.3
234.507	22202.49
234.579	22145.27
234.651	22105.84
234.723	22075.33
234.795	22040.67
234.867	21999.69
234.939	21974.53
235.012	21939.97
235.084	21899.52
235.156	21873.35
235.228	21821.97
235.3	21778.87
235.372	21739.97
235.444	21712.21
235.516	21647.04
235.588	21610.55
235.66	21572.91
235.732	21520.75
235.804	21534.06
235.876	21509.86
235.948	21493.14
236.02	21448.6
236.092	21416.6
236.164	21373.12
236.236	21327.53
236.308	21288.15
236.38	21255.62
236.452	21201.83
236.524	21165.97
236.596	21140.71
236.668	21121.24
236.74	21088.47
236.812	21063.89
236.884	21032.85
236.956	20993.43
237.028	20954.77
237.1	20898.87
237.172	20884.6
237.244	20859.11
237.316	20783.63
237.388	20729.07
237.46	20675
237.532	20654.03
237.604	20608.92
237.675	20596.06
237.747	20564.01
237.819	20526.71
237.891	20481.36
237.963	20433.7
238.035	20390.27
238.107	20317.41
238.178	20277.45
238.25	20230.08
238.322	20199.33
238.394	20148.83
238.466	20106.56
238.538	20076.25
238.609	20051.87
238.681	19981.12
238.753	19938.04
238.825	19894.71
238.897	19865.17
238.968	19848.5
239.04	19805.56
239.112	19798.09
239.184	19739.01
239.255	19695.88
239.327	19647.06
239.399	19616.8
239.471	19599.31
239.542	19572.32
239.614	19561.19
239.686	19509.91
239.758	19488.9
239.829	19437.29
239.901	19412.18
239.973	19378.64
240.044	19338.12
240.116	19291.32
240.188	19256.58
240.259	19219.13
240.331	19181.5
240.403	19154.56
240.474	19098.76
240.546	19048.11
240.618	18982.23
240.689	18940.65
240.761	18907.35
240.833	18895.73
240.904	18856.55
240.976	18804.32
241.048	18766.92
241.119	18724.32
241.191	18684.81
241.262	18666.3
241.334	18628.57
241.405	18587.37
241.477	18527.42
241.549	18485.4
241.62	18447.28
241.692	18413.98
241.763	18382.75
241.835	18336.68
241.906	18288.54
241.978	18234.47
242.049	18213.02
242.121	18194.04
242.192	18162.81
242.264	18105.27
242.335	18041.37
242.407	18004.69
242.478	17964.45
242.55	17922.72
242.621	17874.29
242.693	17840.6
242.764	17794.77
242.836	17755.31
242.907	17716.61
242.979	17695.16
243.05	17662.15
243.122	17629.96
243.193	17590.3
243.264	17532.51
243.336	17501.09
243.407	17476.47
243.479	17463.89
243.55	17423.16
243.622	17383.21
243.693	17351.98
243.764	17334.06
243.836	17291.11
243.907	17244.27
243.978	17213.28
244.05	17183.59
244.121	17134.2
244.192	17096.27
244.264	17036.7
244.335	16996.22
244.407	16945.42
244.478	16911.88
244.549	16872.79
244.62	16827.58
244.692	16795
244.763	16761.79
244.834	16713.26
244.906	16672.1
244.977	16636.54
245.048	16620.82
245.119	16580.58
245.191	16534.6
245.262	16465.92
245.333	16451.61
245.405	16423.8
245.476	16395.84
245.547	16365.38
245.618	16334.34
245.689	16297.42
245.761	16271.78
245.832	16239.63
245.903	16215.97
245.974	16182.71
246.045	16146.95
246.117	16126.85
246.188	16079.09
246.259	16043.8
246.33	16014.35
246.401	15977.39
246.473	15929.57
246.544	15885.33
246.615	15856.89
246.686	15814.81
246.757	15801.46
246.828	15750.03
246.899	15731.09
246.97	15685.2
247.042	15638.4
247.113	15616.18
247.184	15614.78
247.255	15578.44
247.326	15545.37
247.397	15513.37
247.468	15484.64
247.539	15452.63
247.61	15409.88
247.681	15392.57
247.752	15374.79
247.823	15325.33
247.894	15291.88
247.965	15248.74
248.037	15204.73
248.108	15163.61
248.179	15137.63
248.25	15112.85
248.321	15091.07
248.392	15040.69
248.463	15032.16
248.534	14995.67
248.605	14974.22
248.675	14934.75
248.746	14906.55
248.817	14883.31
248.888	14853.33
248.959	14806.86
249.03	14783.14
249.101	14750.85
249.172	14715.76
249.243	14663.16
249.314	14658.44
249.385	14635.16
249.456	14617.61
249.527	14591.68
249.598	14571.72
249.669	14543.28
249.739	14518.26
249.81	14499.32
249.881	14460.37
249.952	14429.13
250.023	14404.06
250.094	14358.94
250.165	14323.22
250.235	14296.76
250.306	14264.8
250.377	14238.04
250.448	14213.65
250.519	14172.44
250.59	14160.91
250.66	14125.14
250.731	14119.12
250.802	14092.7
250.873	14065.47
250.944	14041.17
251.014	14004.87
251.085	14005.45
251.156	13990.02
251.227	13978.21
251.297	13962.74
251.368	13950.83
251.439	13930.78
251.51	13922.44
251.58	13892.31
251.651	13864.06
251.722	13857.6
251.792	13820.48
251.863	13788.67
251.934	13781.15
252.005	13780.61
252.075	13757.67
252.146	13749.04
252.217	13733.52
252.287	13716.31
252.358	13691.53
252.429	13686.61
252.499	13659.91
252.57	13634.84
252.641	13615.65
252.711	13584.99
252.782	13546.67
252.852	13541.9
252.923	13512.15
252.994	13483.76
253.064	13473.3
253.135	13438.78
253.205	13398.58
253.276	13392.5
253.347	13382.14
253.417	13350.08
253.488	13322.27
253.558	13295.22
253.629	13268.61
253.699	13244.9
253.77	13228.55
253.841	13199.97
253.911	13180.3
253.982	13159.81
254.052	13138.02
254.123	13123.9
254.193	13113.29
254.264	13125.68
254.334	13092.76
254.405	13058.39
254.475	13026.23
254.546	13003.53
254.616	13004.35
254.687	12985.4
254.757	12969.16
254.827	12939.99
254.898	12919.21
254.968	12895.98
255.039	12859.87
255.109	12845.46
255.18	12814.08
255.25	12763.51
255.321	12751.07
255.391	12708.17
255.461	12715.64
255.532	12669.56
255.602	12640.01
255.673	12588.38
255.743	12561.24
255.813	12512.94
255.884	12511.54
255.954	12503.3
256.024	12498.05
256.095	12465.75
256.165	12437.65
256.235	12420.2
256.306	12398.21
256.376	12388.09
256.446	12377.2
256.517	12369.44
256.587	12358.16
256.657	12347.36
256.728	12340.37
256.798	12319.5
256.868	12302.24
256.938	12273.13
257.009	12264.64
257.079	12247.34
257.149	12254.91
257.219	12208.24
257.29	12197.79
257.36	12156.57
257.43	12141.82
257.5	12096.22
257.571	12072.41
257.641	12055.45
257.711	12021.8
257.781	12009.8
257.852	11998.52
257.922	11955.23
257.992	11934.8
258.062	11913.88
258.132	11895.9
258.202	11872.23
258.273	11857.58
258.343	11855.75
258.413	11827.89
258.483	11805.33
258.553	11773.76
258.623	11748.12
258.693	11734.52
258.764	11736.98
258.834	11730.62
258.904	11714.57
258.974	11693.84
259.044	11676.25
259.114	11665.79
259.184	11646.95
259.254	11620.78
259.324	11579.47
259.394	11571.81
259.464	11576.87
259.535	11557.54
259.605	11538.99
259.675	11512.77
259.745	11500.57
259.815	11469.39
259.885	11443.32
259.955	11455.66
260.025	11429.1
260.095	11402.59
260.165	11400.14
260.235	11394.45
260.305	11369.44
260.375	11337
260.445	11344.23
260.515	11346.93
260.585	11345.92
260.655	11332.52
260.725	11335.84
260.795	11333.05
260.865	11337.53
260.934	11307.12
261.004	11296.37
261.074	11272.23
261.144	11274.97
261.214	11263.45
261.284	11243.21
261.354	11243.17
261.424	11210.73
261.494	11218.68
261.564	11206.34
261.634	11189.96
261.703	11151.6
261.773	11150.92
261.843	11151.5
261.913	11136.51
261.983	11102.44
262.053	11083.26
262.123	11073.04
262.192	11039.94
262.262	11032.61
262.332	10997.29
262.402	10983.65
262.472	10966.25
262.541	10930.02
262.611	10919.37
262.681	10891.18
262.751	10884.05
262.821	10865.69
262.89	10839.66
262.96	10827.71
263.03	10839.09
263.1	10826.22
263.169	10812.82
263.239	10796.44
263.309	10796.39
263.379	10787.62
263.448	10774.61
263.518	10762.57
263.588	10739.77
263.657	10740.88
263.727	10730.71
263.797	10719.15
263.867	10702.48
263.936	10681.13
264.006	10689.76
264.076	10671.64
264.145	10653.33
264.215	10633.86
264.285	10625.19
264.354	10594.07
264.424	10572.39
264.494	10534.75
264.563	10509.36
264.633	10514.9
264.702	10504.88
264.772	10462.28
264.842	10430.82
264.911	10426.05
264.981	10403.16
265.05	10386.59
265.12	10370.31
265.19	10358.64
265.259	10349.54
265.329	10343.03
265.398	10323.43
265.468	10333.3
265.537	10315.67
265.607	10308.45
265.676	10303.82
265.746	10290.67
265.815	10296.59
265.885	10281.8
265.955	10259.02
266.024	10244.52
266.094	10208.58
266.163	10210.89
266.232	10217.68
266.302	10209.2
266.371	10188.15
266.441	10169.61
266.51	10164.74
266.58	10142.24
266.649	10119.17
266.719	10116.71
266.788	10107.56
266.858	10123.84
266.927	10088
266.996	10080.67
267.066	10076.77
267.135	10055.82
267.205	10052.4
267.274	10034.77
267.343	10037.61
267.413	10027.98
267.482	10027.69
267.552	10034.72
267.621	10005.67
267.69	9975.66
267.76	9962.99
267.829	9960.58
267.898	9953.74
267.968	9931.11
268.037	9927.01
268.106	9924.03
268.176	9900.9
268.245	9886.12
268.314	9855.96
268.384	9855.91
268.453	9843.87
268.522	9832.84
268.592	9830.67
268.661	9811.16
268.73	9800.28
268.799	9777.88
268.869	9790.45
268.938	9761.84
269.007	9741.33
269.076	9726.92
269.146	9727.36
269.215	9724.81
269.284	9726.93
269.353	9705.11
269.422	9701.3
269.492	9684.74
269.561	9640.53
269.63	9640.14
269.699	9621.17
269.768	9613.65
269.838	9601.47
269.907	9600.07
269.976	9579.41
270.045	9547.34
270.114	9542.09
270.183	9526.68
270.253	9515.07
270.322	9473.9
270.391	9464.46
270.46	9468.12
270.529	9468.89
270.598	9466.39
270.667	9453.1
270.736	9431.28
270.806	9431.09
270.875	9426.32
270.944	9410.48
271.013	9439.95
271.082	9425.74
271.151	9423.43
271.22	9394.15
271.289	9387.94
271.358	9371.28
271.427	9364.59
271.496	9357.85
271.565	9343.93
271.634	9341.23
271.703	9368.83
271.772	9381.49
271.841	9372.83
271.91	9347.84
271.979	9335.36
272.048	9310.32
272.117	9305.08
272.186	9284.18
272.255	9277.82
272.324	9281.15
272.393	9283.65
272.462	9258.7
272.531	9256.2
272.6	9242.62
272.669	9252.44
272.738	9234.63
272.807	9232.17
272.876	9210.8
272.945	9236.75
273.013	9234.34
273.082	9237.95
273.151	9189.08
273.22	9179.49
273.289	9174.15
273.358	9183.88
273.427	9176.61
273.496	9174.58
273.564	9172.27
273.633	9178.53
273.702	9159.47
273.771	9150.65
273.84	9139.97
273.909	9139.87
273.977	9131.01
274.046	9124.51
274.115	9132.12
274.184	9112.09
274.253	9101.5
274.322	9109.45
274.39	9075.26
274.459	9060.24
274.528	9031.02
274.597	9026.98
274.665	9025.73
274.734	9031.45
274.803	9017.73
274.872	9006.85
274.94	8995.01
275.009	9049.87
275.078	9030.57
275.147	9025.9
275.215	9012.85
275.284	9025.08
275.353	9017.66
275.421	8990.76
275.49	9007.17
275.559	8996.34
275.627	8995.04
275.696	8989.55
275.765	8990.03
275.833	8984.4
275.902	8992.35
275.971	9005.87
276.039	9017.86
276.108	9019.21
276.177	9014.3
276.245	9005.63
276.314	9002.26
276.383	9004.38
276.451	8937
276.52	8946.87
276.588	8965.12
276.657	8970.6
276.725	8952.02
276.794	8953.13
276.863	8972.53
276.931	8947.06
277	8953.8
277.068	8969.25
277.137	8983.21
277.205	8984.51
277.274	9009.06
277.342	9017.29
277.411	8989.38
277.48	8974.45
277.548	8963
277.617	8961.55
277.685	8955.01
277.754	8956.11
277.822	8946.54
277.89	8962.76
277.959	8955.35
278.027	8932.58
278.096	8921.56
278.164	8947.94
278.233	8940.38
278.301	8922.18
278.37	8924.69
278.438	8902.11
278.507	8899.17
278.575	8875.44
278.643	8863.98
278.712	8838.76
278.78	8815.85
278.849	8834.52
278.917	8848.53
278.985	8848.04
279.054	8853.29
279.122	8862.34
279.191	8859.84
279.259	8862.77
279.327	8835.86
279.396	8851.85
279.464	8851.65
279.532	8860.94
279.601	8858.2
279.669	8854.16
279.737	8865.37
279.806	8867.63
279.874	8881.21
279.942	8877.5
280.011	8876.06
280.079	8888.28
280.147	8910.47
280.215	8919.86
280.284	8914.04
280.352	8896.03
280.42	8898.63
280.488	8888.96
280.557	8882.12
280.625	8883.61
280.693	8881.74
280.761	8887.32
280.83	8865.37
280.898	8879.28
280.966	8858.1
281.034	8825.46
281.102	8804.63
281.171	8804.48
281.239	8809.49
281.307	8798.99
281.375	8790.67
281.443	8810.64
281.512	8801.59
281.58	8800.82
281.648	8784.22
281.716	8787.44
281.784	8788.16
281.852	8783.49
281.92	8776.52
281.989	8795.82
282.057	8778.06
282.125	8821.15
282.193	8821.58
282.261	8824.18
282.329	8820.24
282.397	8821.63
282.465	8826.11
282.533	8849.11
282.601	8833.32
282.67	8813.54
282.738	8803.05
282.806	8812
282.874	8800.74
282.942	8801.51
283.01	8794.86
283.078	8795.58
283.146	8785.14
283.214	8793.9
283.282	8793.13
283.35	8808.39
283.418	8796.31
283.486	8802.56
283.554	8761.16
283.622	8757.93
283.69	8751.72
283.758	8745.61
283.826	8750.57
283.894	8763.8
283.962	8776.85
284.03	8796.78
284.098	8797.64
284.165	8798.27
284.233	8797.02
284.301	8787.78
284.369	8780.7
284.437	8772.52
284.505	8768.48
284.573	8790.18
284.641	8780.17
284.709	8785.9
284.777	8763.42
284.845	8766.12
284.912	8771.22
284.98	8772.66
285.048	8765.35
285.116	8773.34
285.184	8786.96
285.252	8794.27
285.319	8776.22
285.387	8768.04
285.455	8745.37
285.523	8755.14
285.591	8750.23
285.659	8753.99
285.726	8772.38
285.794	8759.29
285.862	8760.25
285.93	8763.42
285.997	8756.59
286.065	8752.21
286.133	8738.97
286.201	8739.41
286.269	8727.47
286.336	8724
286.404	8719.67
286.472	8727.03
286.539	8706.29
286.607	8687.52
286.675	8679.19
286.743	8683.09
286.81	8675.63
286.878	8692.48
286.946	8681.6
287.013	8685.16
287.081	8681.6
287.149	8660.08
287.216	8679.33
287.284	8667.69
287.352	8664.89
287.419	8658.35
287.487	8670.72
287.555	8677.5
287.622	8676.2
287.69	8679.86
287.758	8691.99
287.825	8686.75
287.893	8683.67
287.96	8694.35
288.028	8704.31
288.096	8711.77
288.163	8721.35
288.231	8714.61
288.298	8716.15
288.366	8728.76
288.433	8722.27
288.501	8718.13
288.569	8722.56
288.636	8719.19
288.704	8738.15
288.771	8752.11
288.839	8741.38
288.906	8736.85
288.974	8750.38
289.041	8748.26
289.109	8741.86
289.176	8744.99
289.244	8753.8
289.311	8769.01
289.379	8773.72
289.446	8782.29
289.514	8788.12
289.581	8782.73
289.649	8783.88
289.716	8782
289.783	8773.44
289.851	8791.97
289.918	8791.2
289.986	8803.76
290.053	8805.68
290.121	8804.14
290.188	8798.94
290.255	8832.73
290.323	8830.62
290.39	8820.31
290.458	8831.48
290.525	8842.6
290.592	8836.34
290.66	8840.29
290.727	8828.64
290.794	8845.24
290.862	8839.23
290.929	8836.24
290.996	8836.87
291.064	8843.7
291.131	8854.2
291.198	8869.79
291.266	8871.53
291.333	8874.37
291.4	8877.59
291.468	8895.11
291.535	8886.6
291.602	8894.87
291.669	8888.42
291.737	8890.2
291.804	8888.33
291.871	8902.05
291.938	8911.43
292.006	8946.82
292.073	8954.48
292.14	8961.65
292.207	8957.32
292.275	8959.43
292.342	8965.98
292.409	8996.89
292.476	9023.42
292.543	9021.92
292.611	9022.6
292.678	9040.12
292.745	9065.01
292.812	9075.22
292.879	9069.34
292.946	9078.49
293.014	9089.47
293.081	9100.25
293.148	9111.56
293.215	9133.18
293.282	9133.52
293.349	9143.68
293.416	9116.47
293.484	9136.11
293.551	9145.89
293.618	9164.95
293.685	9190.13
293.752	9183.39
293.819	9176.08
293.886	9163.85
293.953	9163.08
294.02	9176.03
294.087	9180.51
294.154	9168.47
294.221	9186.14
294.288	9195.34
294.356	9213.44
294.423	9218.64
294.49	9213.2
294.557	9227.02
294.624	9219.7
294.691	9237.95
294.758	9232.79
294.825	9243.1
294.892	9225.81
294.959	9226.34
295.026	9226.1
295.093	9215.94
295.16	9218.35
295.226	9225.76
295.293	9251.86
295.36	9263.85
295.427	9270.16
295.494	9277.62
295.561	9286.91
295.628	9311.24
295.695	9320.39
295.762	9321.01
295.829	9331.61
295.896	9342.78
295.963	9353.71
296.03	9363.58
296.096	9366.71
296.163	9378.84
296.23	9393.34
296.297	9412.84
296.364	9421.7
296.431	9426.71
296.498	9431.43
296.564	9456.66
296.631	9454.87
296.698	9443.51
296.765	9460.94
296.832	9451.79
296.899	9442.35
296.965	9465.18
297.032	9437.63
297.099	9456.17
297.166	9466.62
297.233	9466.81
297.299	9462.38
297.366	9462.38
297.433	9462.48
297.5	9470.71
297.566	9471.34
297.633	9469.32
297.7	9474.57
297.767	9470.81
297.833	9475.53
297.9	9472.21
297.967	9456.85
298.033	9463.3
298.1	9490.85
298.167	9481.07
298.234	9483.72
298.3	9493.3
298.367	9488.2
298.434	9493.74
298.5	9480.54
298.567	9476.11
298.634	9475.63
298.7	9495.66
298.767	9502.31
298.834	9523.02
298.9	9517.72
298.967	9510.93
299.033	9527.83
299.1	9539.78
299.167	9554.47
299.233	9554.95
299.3	9572.52
299.366	9591.59
299.433	9611.82
299.5	9583.69
299.566	9591.59
299.633	9614.71
299.699	9630.31
299.766	9629.06
299.832	9637.73
299.899	9648.28
299.965	9660.56
300.032	9654.39
300.099	9652.66
300.165	9659.21
300.232	9650.69
300.298	9652.37
300.365	9674.38
300.431	9671.01
300.498	9661.62
300.564	9662.15
300.631	9675.25
300.697	9686.76
300.763	9690.37
300.83	9689.41
300.896	9705.11
300.963	9713.25
301.029	9712.48
301.096	9711.27
301.162	9715.41
301.229	9710.11
301.295	9696.05
301.361	9701.49
301.428	9710.88
301.494	9699.47
301.561	9697.45
301.627	9702.6
301.693	9705.78
301.76	9702.17
301.826	9696.34
301.892	9711.03
301.959	9725.67
302.025	9714.59
302.092	9708.96
302.158	9707.13
302.224	9712.52
302.291	9700.53
302.357	9696.63
302.423	9697.45
302.49	9688.78
302.556	9708.38
302.622	9702.7
302.688	9723.84
302.755	9734.59
302.821	9742.05
302.887	9755.3
302.954	9752.21
303.02	9755.39
303.086	9763.68
303.152	9765.41
303.219	9764.11
303.285	9768.2
303.351	9770.76
303.417	9784.05
303.483	9775.96
303.55	9771
303.616	9764.35
303.682	9767.43
303.748	9764.06
303.815	9775.53
303.881	9790.89
303.947	9769.36
304.013	9774.37
304.079	9759.97
304.145	9740.22
304.212	9736.03
304.278	9731.98
304.344	9732.08
304.41	9721.53
304.476	9712.96
304.542	9708.58
304.608	9717.1
304.674	9697.55
304.741	9691.57
304.807	9694.42
304.873	9702.46
304.939	9723.65
305.005	9702.56
305.071	9699.14
305.137	9701.88
305.203	9676.69
305.269	9670.67
305.335	9683.14
305.401	9688.92
305.467	9691.67
305.533	9700.1
305.599	9708.38
305.666	9713.97
305.732	9714.5
305.798	9726.68
305.864	9750.91
305.93	9750.86
305.996	9744.94
306.062	9743.59
306.128	9738.68
306.194	9722.25
306.259	9726.11
306.325	9719.27
306.391	9737.47
306.457	9746.38
306.523	9745.27
306.589	9768.83
306.655	9755.97
306.721	9742.1
306.787	9721.44
306.853	9734.78
306.919	9719.17
306.985	9710.12
307.051	9699.33
307.117	9691.77
307.183	9687
307.248	9655.12
307.314	9663.01
307.38	9662.97
307.446	9671.4
307.512	9661.23
307.578	9659.6
307.644	9651.84
307.709	9652.23
307.775	9651.07
307.841	9645.77
307.907	9649.96
307.973	9628.29
308.039	9636.14
308.104	9639.37
308.17	9645.05
308.236	9629.64
308.302	9634.26
308.368	9627.13
308.433	9626.7
308.499	9617.88
308.565	9609.31
308.631	9615.57
308.696	9595.54
308.762	9580.18
308.828	9576.76
308.894	9560.87
308.959	9545.12
309.025	9532.5
309.091	9524.6
309.156	9505.39
309.222	9508.42
309.288	9493.49
309.354	9468.74
309.419	9460.12
309.485	9446.69
309.551	9449.48
309.616	9437.39
309.682	9433.44
309.748	9424.53
309.813	9419.19
309.879	9413.41
309.945	9400.7
310.01	9390.73
310.076	9389.33
310.141	9392.8
310.207	9376.91
310.273	9382.78
310.338	9385.09
310.404	9370.7
310.469	9356.49
310.535	9350.42
310.601	9326.2
310.666	9328.61
310.732	9352.49
310.797	9339.68
310.863	9332.8
310.928	9326.97
310.994	9331.16
311.059	9325
311.125	9323.31
311.191	9332.37
311.256	9325.53
311.322	9330.58
311.387	9313.59
311.453	9695.25
311.518	9664.63
311.584	9662.51
311.649	9664.1
311.715	9655.19
311.78	9657.12
311.846	9649.85
311.911	9656.64
311.976	9658.13
312.042	9648.07
312.107	9620.33
312.173	9618.6
312.238	9609.5
312.304	9602.37
312.369	9589.27
312.434	9580.08
312.5	9569.15
312.565	9536.22
312.631	9539.39
312.696	9530.34
312.761	9534.58
312.827	9144.73
312.892	9185.13
312.958	9180.55
313.023	9181.13
313.088	9186.52
313.154	9170.78
313.219	9165.29
313.284	9160.53
313.35	9158.02
313.415	9143.19
313.48	9142.18
313.546	9137.85
313.611	9150.22
313.676	9144.16
313.741	9129.67
313.807	9138.86
313.872	9141.46
313.937	9152.05
314.003	9164.86
314.068	9161.63
314.133	9166.5
314.198	9152.3
314.264	9131.2
314.329	9121.38
314.394	9111.61
314.459	9102.94
314.525	9123.98
314.59	9116.23
314.655	9095.24
314.72	9101.83
314.785	9107.95
314.851	9097.07
314.916	9088.02
314.981	9067.8
315.046	9053.84
315.111	9045.7
315.176	9032.56
315.242	9034.63
315.307	9032.03
315.372	9007.76
315.437	8999.48
315.502	8988.51
315.567	9002.37
315.632	8986.48
315.698	8989.32
315.763	8986.77
315.828	8976.81
315.893	8969.68
315.958	8959.48
316.023	8954.95
316.088	8935.17
316.153	8908.89
316.218	8906.1
316.283	8884.97
316.348	8869.9
316.413	8868.31
316.479	8855.99
316.544	8814.65
316.609	8786.73
316.674	8749.43
316.739	8714.69
316.804	8680.91
316.869	8644.28
316.934	8602.89
316.999	8578.06
317.064	8525.75
317.129	8483.2
317.194	8442.74
317.259	8396.15
317.324	8348.86
317.389	8302.29
317.454	8260.9
317.518	8228.53
317.583	8206.78
317.648	8181.47
317.713	8147.75
317.778	8085.21
317.843	8059.57
317.908	8027.3
317.973	7987.13
318.038	7960.77
318.103	7926.2
318.168	7895.56
318.233	7863.19
318.297	7815.2
318.362	7774.32
318.427	7735.57
318.492	7702.48
318.557	7659.89
318.622	7628.97
318.687	7605.41
318.751	7567.19
318.816	7534.84
318.881	7500.61
318.946	7441.81
319.011	7392.01
319.075	7351.25
319.14	7317.13
319.205	7268.25
319.27	7233.6
319.335	7191.83
319.399	7147.19
319.464	7112.3
319.529	7061.37
319.594	7024.13
319.658	6995.35
319.723	6953.31
319.788	6928.28
319.853	6873.27
319.917	6836.87
319.982	6784.56
320.047	6749.3
320.112	6725.48
320.176	6675.82
320.241	6640.08
320.306	6611.13
320.37	6572.71
320.435	6541.02
320.5	6513.94
320.564	6472.27
320.629	6433.72
320.694	6400.79
320.758	6361.95
320.823	6323.26
320.888	6294.18
320.952	6242.16
321.017	6199.78
321.082	6161.72
321.146	6123.66
321.211	6093.87
321.275	6057.89
321.34	6012.85
321.405	5966.07
321.469	5915.8
321.534	5873.5
321.598	5824.77
321.663	5793.2
321.727	5763.17
321.792	5713.16
321.857	5669.32
321.921	5633.07
321.986	5586.77
322.05	5526.04
322.115	5488.88
322.179	5447.08
322.244	5393.46
322.308	5364.37
322.373	5316.69
322.437	5274.76
322.502	5246.38
322.566	5202.05
322.631	5167.47
322.695	5126.85
322.76	5080.92
322.824	5046.43
322.889	5000.18
322.953	4954.75
323.018	4889.04
323.082	4824.37
323.146	4776.83
323.211	4723.94
323.275	4680.18
323.34	4633.05
323.404	4601.33
323.468	4554.81
323.533	4505.43
323.597	4460
323.662	4406.37
323.726	4372.88
323.79	4321.75
323.855	4259.64
323.919	4210.09
323.983	4166.09
324.048	4100.77
324.112	4254.12
324.177	4122.61
324.241	3913.94
324.305	3705.54
324.37	3500.45
324.434	3303.82
324.498	3256.84
324.562	3206.4
324.627	3144.1
324.691	3092.08
324.755	3025.14
324.82	2945.87
324.884	2870.61
324.948	2797.06
325.012	2701.88
325.077	2574.88
