Data from 20250703_urea_0.1M_MAYP1162681_14-11-04-874.txt Node
Date: Thu Jul 03 14:11:04 BST 2025
User: adleo
Spectrometer: MAYP116268
Trigger mode: 0
Integration Time (sec): 1.000000E0
Scans to average: 1
Electric dark correction enabled: true
Nonlinearity correction enabled: true
Boxcar width: 10
XAxis mode: Wavelengths
Number of Pixels in Spectrum: 2068
>>>>>Begin Spectral Data<<<<<
179.565	1253.58
179.642	1312.77
179.718	1358.87
179.795	1400.94
179.871	1433.41
179.948	1451.41
180.024	1473.8
180.101	1496.7
180.177	1511.41
180.254	1536.34
180.33	1560.78
180.407	1618.57
180.483	1715.82
180.56	1809.04
180.636	1895.26
180.712	1883.27
180.789	1891.88
180.865	1906.38
180.942	1915.12
181.018	1925.82
181.095	1942.23
181.171	1947.17
181.248	1945.75
181.324	1960.82
181.4	1965.91
181.477	1977.04
181.553	1991.06
181.63	2009.99
181.706	2027.73
181.782	2036.48
181.859	2032.91
181.935	2034.57
182.011	2028.11
182.088	2047.13
182.164	2067.73
182.24	2082.38
182.317	2090.65
182.393	2092.27
182.469	2103.78
182.546	2117.76
182.622	2124.23
182.698	2118.57
182.775	2129.13
182.851	2144.21
182.927	2136.41
183.003	2131.75
183.08	2125.9
183.156	2135.22
183.232	2134.94
183.308	2121.09
183.385	2132.56
183.461	2153.68
183.537	2156.87
183.613	2172.37
183.69	2161.72
183.766	2152.58
183.842	2159.81
183.918	2164.28
183.995	2176.89
184.071	2180.65
184.147	2173.61
184.223	2159.91
184.299	2170.57
184.375	2158.39
184.452	2166.48
184.528	2217.4
184.604	2230.15
184.68	2244.42
184.756	2251.36
184.832	2253.65
184.908	2258.83
184.985	2255.22
185.061	2238.47
185.137	2248.51
185.213	2237.04
185.289	2239.23
185.365	2231.91
185.441	2231.38
185.517	2248.23
185.593	2244.24
185.669	2244.19
185.745	2256.99
185.822	2273.68
185.898	2265.73
185.974	2276.48
186.05	2268.82
186.126	2234.8
186.202	2227.38
186.278	2223.9
186.354	2214.1
186.43	2222.24
186.506	2220.96
186.582	2218.58
186.658	2224.81
186.734	2204.02
186.81	2204.88
186.886	2206.87
186.962	2219.77
187.038	2215.87
187.114	2205.82
187.19	2214.2
187.266	2203.54
187.341	2205.21
187.417	2196.69
187.493	2195.22
187.569	2198.83
187.645	2191.03
187.721	2179.13
187.797	2186.27
187.873	2187.55
187.949	2182.46
188.025	2175.56
188.101	2179.13
188.176	2190.93
188.252	2187.79
188.328	2195.21
188.404	2196.06
188.48	2193.35
188.556	2184.17
188.632	2184.83
188.707	2186.55
188.783	2179.79
188.859	2173.08
188.935	2160
189.011	2171.89
189.086	2166.13
189.162	2159
189.238	2157.86
189.314	2157.67
189.39	2151.29
189.465	2145.3
189.541	2161.28
189.617	2141.16
189.693	2135.36
189.768	2133.98
189.844	2155.3
189.92	2148.22
189.996	2156.16
190.071	2166.53
190.147	2164.01
190.223	2173.06
190.298	2164.39
190.374	2155.45
190.45	2168.53
190.526	2178.29
190.601	2170.1
190.677	2172.48
190.753	2196.57
190.828	2199.09
190.904	2211.65
190.98	2227.31
191.055	2238.4
191.131	2229.88
191.207	2259.28
191.282	2270.65
191.358	2260.75
191.433	2247.71
191.509	2261.64
191.585	2262.6
191.66	2265.74
191.736	2276.06
191.811	2265.78
191.887	2282.11
191.963	2305.33
192.038	2312.23
192.114	2309.76
192.189	2314.09
192.265	2309.71
192.34	2289.62
192.416	2291.71
192.491	2287.43
192.567	2289.71
192.642	2294.33
192.718	2294.09
192.793	2277.29
192.869	2275.25
192.944	2279.2
193.02	2287.1
193.095	2289.19
193.171	2292.62
193.246	2291.14
193.322	2290.38
193.397	2288.05
193.473	2275.67
193.548	2256.35
193.624	2261.25
193.699	2261.06
193.775	2278.49
193.85	2280.72
193.925	2291
194.001	2287.1
194.076	2277.58
194.152	2267.16
194.227	2256.55
194.302	2247.37
194.378	2251.98
194.453	2244.51
194.529	2256.17
194.604	2241.75
194.679	2238.61
194.755	2219.58
194.83	2231.25
194.905	2223.83
194.981	2235.58
195.056	2227.59
195.131	2236.53
195.207	2232.63
195.282	2222.45
195.357	2202.98
195.433	2221.3
195.508	2208.68
195.583	2217.68
195.659	2232.86
195.734	2240.81
195.809	2241.47
195.884	2250.7
195.96	2253.56
196.035	2271.64
196.11	2267.07
196.185	2276.92
196.261	2279.72
196.336	2310.75
196.411	2296.42
196.486	2306.99
196.561	2302.18
196.637	2311.84
196.712	2326.74
196.787	2331.36
196.862	2348.54
196.937	2356.53
197.013	2361.01
197.088	2368.81
197.163	2392.1
197.238	2412.34
197.313	2411.44
197.388	2424.1
197.464	2454.15
197.539	2463
197.614	2457
197.689	2473.05
197.764	2490.38
197.839	2507.43
197.914	2503.86
197.989	2527.1
198.065	2536.43
198.14	2588.66
198.215	2613.18
198.29	2625.67
198.365	2640.81
198.44	2652.96
198.515	2684.21
198.59	2698.69
198.665	2728.56
198.74	2736.14
198.815	2737.09
198.89	2762.48
198.965	2795.94
199.04	2792.7
199.115	2810.28
199.19	2853.3
199.265	2855.12
199.34	2866.84
199.415	2907.04
199.49	2927.76
199.565	2937.3
199.64	2964.89
199.715	2960.69
199.79	2968.7
199.865	2972.13
199.94	2969.51
200.015	3001.46
200.09	3004.51
200.165	3012.52
200.24	3017.86
200.315	3060.05
200.39	3073.35
200.464	3080.88
200.539	3083.27
200.614	3100.1
200.689	3123.75
200.764	3129.14
200.839	3149.88
200.914	3155.84
200.989	3143.53
201.063	3160.6
201.138	3143.07
201.213	3140.44
201.288	3122.65
201.363	3130.33
201.438	3134.34
201.512	3151.93
201.587	3135.52
201.662	3140.76
201.737	3153.83
201.812	3162.18
201.886	3126.81
201.961	3138.6
202.036	3123.58
202.111	3120
202.186	3090.12
202.26	3072.76
202.335	3053.11
202.41	3044.67
202.485	3030.28
202.559	3010.59
202.634	2983.36
202.709	2998.61
202.784	2986.35
202.858	2991.26
202.933	2975.91
203.008	2975.34
203.082	2960.8
203.157	2967.81
203.232	2931.07
203.306	2919.38
203.381	2895.02
203.456	2882.72
203.53	2871.51
203.605	2866.55
203.68	2853.63
203.754	2867.06
203.829	2868.59
203.904	2867.25
203.978	2873.59
204.053	2901.01
204.127	2912.79
204.202	2936.29
204.277	2943.3
204.351	2967
204.426	2989.52
204.5	3017.13
204.575	3018.23
204.65	3064.75
204.724	3093.92
204.799	3148.98
204.873	3188.31
204.948	3237.88
205.022	3276.91
205.097	3324.23
205.171	3391.9
205.246	3464.69
205.32	3526.21
205.395	3591.83
205.469	3653.08
205.544	3735.56
205.618	3787.01
205.693	3880.35
205.767	3952.76
205.842	4060.04
205.916	4142.85
205.991	4225.16
206.065	4327.15
206.14	4440.47
206.214	4537.55
206.289	4635.4
206.363	4759.54
206.438	4869.59
206.512	4991.67
206.586	5124.38
206.661	5252.6
206.735	5356.31
206.81	5483.44
206.884	5632.92
206.958	5756.63
207.033	5914.49
207.107	6057.47
207.181	6241.95
207.256	6379.92
207.33	6550.68
207.405	6716.43
207.479	6894.87
207.553	7056.93
207.628	7197.69
207.702	7372.89
207.776	7528.28
207.851	7694.42
207.925	7871.16
207.999	8044.43
208.073	8215.47
208.148	8401.89
208.222	8567.86
208.296	8779.89
208.371	8978.13
208.445	9167.8
208.519	9377.73
208.593	9569.9
208.668	9751.21
208.742	9935.17
208.816	10121.21
208.89	10321.57
208.965	10510.05
209.039	10700.17
209.113	10908.79
209.187	11116.44
209.261	11304.56
209.336	11520.88
209.41	11729.98
209.484	11922.57
209.558	12127.3
209.632	12327.42
209.707	12528.61
209.781	12739.34
209.855	12943.71
209.929	13140.87
210.003	13331.95
210.077	13514.88
210.151	13748.14
210.226	13971.85
210.3	14185.39
210.374	14392.47
210.448	14572.08
210.522	14752.75
210.596	14941.46
210.67	15138.17
210.744	15363.95
210.818	15568.52
210.892	15762.57
210.966	15935.32
211.041	16125.9
211.115	16302.41
211.189	16489.99
211.263	16671.46
211.337	16846.46
211.411	17024.44
211.485	17194.33
211.559	17364.99
211.633	17534.68
211.707	17667.11
211.781	17830.34
211.855	17962.58
211.929	18110.82
212.003	18254.38
212.077	18418.28
212.151	18578.95
212.225	18728.49
212.299	18866.65
212.373	19002.26
212.447	19138.73
212.52	19316.46
212.594	19462.82
212.668	19616.4
212.742	19743.39
212.816	19870.18
212.89	19997.5
212.964	20129.5
213.038	20251.48
213.112	20403.77
213.186	20549.99
213.26	20656.3
213.333	20741.41
213.407	20856.65
213.481	20980.8
213.555	21100.75
213.629	21209.2
213.703	21315.23
213.777	21430.29
213.85	21527.6
213.924	21677.03
213.998	21791.81
214.072	21893.96
214.146	21981.74
214.219	22072.94
214.293	22181.01
214.367	22290.25
214.441	22405.23
214.515	22495.91
214.588	22577.09
214.662	22629.21
214.736	22690.82
214.81	22790.96
214.883	22880.14
214.957	22957.81
215.031	23042.24
215.105	23109.2
215.178	23186.25
215.252	23263.69
215.326	23314.32
215.4	23367.56
215.473	23393.74
215.547	23450.89
215.621	23510.41
215.694	23596.98
215.768	23650.94
215.842	23705.96
215.915	23760.08
215.989	23795.77
216.063	23852.68
216.136	23913.6
216.21	23977.21
216.284	24055.01
216.357	24115.26
216.431	24169.47
216.504	24234.68
216.578	24302.27
216.652	24380.55
216.725	24442.3
216.799	24502.46
216.873	24561.36
216.946	24620.98
217.02	24669.37
217.093	24702.8
217.167	24721.56
217.24	24747.28
217.314	24797.45
217.387	24837.3
217.461	24882.03
217.535	24950.31
217.608	24979.02
217.682	25019.5
217.755	25086.57
217.829	25119.58
217.902	25163.15
217.976	25211.69
218.049	25239.25
218.123	25267.86
218.196	25311.93
218.27	25339.63
218.343	25354.49
218.417	25395.95
218.49	25433.2
218.563	25487.88
218.637	25549.95
218.71	25616.31
218.784	25662.45
218.857	25701.83
218.931	25735.04
219.004	25765.49
219.077	25791.71
219.151	25829.69
219.224	25871.97
219.298	25884.52
219.371	25922.18
219.444	25923.82
219.518	25953.94
219.591	25988.21
219.665	26036.1
219.738	26045.56
219.811	26063.9
219.885	26099.77
219.958	26124.82
220.031	26150.26
220.105	26167.74
220.178	26178.99
220.251	26185.94
220.325	26204.34
220.398	26220.37
220.471	26248.94
220.544	26275.98
220.618	26280.91
220.691	26299.49
220.764	26314.41
220.838	26341.69
220.911	26357.77
220.984	26398.61
221.057	26410.83
221.131	26426.37
221.204	26403.44
221.277	26437.33
221.35	26478.09
221.424	26492.81
221.497	26495.47
221.57	26501.55
221.643	26521.35
221.716	26544.14
221.79	26547.28
221.863	26549.21
221.936	26557.86
222.009	26564.23
222.082	26560.9
222.155	26560.61
222.229	26580.84
222.302	26569.98
222.375	26569.3
222.448	26569.4
222.521	26564.47
222.594	26561.77
222.667	26536.08
222.74	26551.44
222.814	26546.71
222.887	26532.22
222.96	26527.82
223.033	26535.11
223.106	26542.02
223.179	26535.45
223.252	26518.6
223.325	26501.65
223.398	26497.31
223.471	26495.18
223.544	26490.21
223.617	26485.48
223.69	26488.42
223.763	26465.73
223.837	26460.56
223.91	26451.1
223.983	26421.6
224.056	26398.04
224.129	26392.53
224.202	26402.77
224.275	26380.03
224.348	26362.07
224.42	26319.68
224.493	26284.43
224.566	26270.58
224.639	26248.13
224.712	26218.96
224.785	26197.29
224.858	26188.69
224.931	26160.93
225.004	26129.65
225.077	26111.93
225.15	26067.72
225.223	26040.25
225.296	26036.77
225.369	25998.3
225.442	25976.14
225.514	25960.6
225.587	25947.76
225.66	25922.07
225.733	25902.28
225.806	25879.02
225.879	25848.61
225.952	25814.24
226.025	25808.5
226.097	25781.37
226.17	25756.03
226.243	25716.6
226.316	25683.97
226.389	25653.37
226.461	25643.38
226.534	25624.65
226.607	25594
226.68	25591.2
226.753	25563.36
226.825	25507.99
226.898	25500.22
226.971	25468.56
227.044	25440.81
227.117	25405.15
227.189	25383.29
227.262	25358.92
227.335	25338.6
227.407	25297.97
227.48	25289.86
227.553	25263.32
227.626	25245.8
227.698	25218.25
227.771	25188.81
227.844	25148.48
227.916	25128.26
227.989	25072.43
228.062	25032.19
228.134	25016.31
228.207	24982.24
228.28	24947.07
228.352	24926.85
228.425	24904.37
228.498	24883.09
228.57	24853.56
228.643	24842.95
228.716	24808.21
228.788	24772.89
228.861	24738.88
228.934	24730.29
229.006	24696.61
229.079	24654.4
229.151	24602.49
229.224	24558.01
229.296	24539.97
229.369	24541.08
229.442	24538.42
229.514	24504.32
229.587	24490.09
229.659	24449.52
229.732	24422.89
229.804	24409.04
229.877	24409.38
229.949	24382.13
230.022	24363.89
230.094	24330.99
230.167	24293.9
230.239	24259.22
230.312	24228.39
230.384	24220.34
230.457	24185.99
230.529	24161.44
230.602	24144.47
230.674	24125.22
230.747	24099.66
230.819	24079.16
230.892	24023.31
230.964	23978.54
231.037	23970.3
231.109	23943.14
231.181	23912.95
231.254	23870.51
231.326	23825.51
231.399	23771.49
231.471	23730.4
231.544	23669
231.616	23643.25
231.688	23614.07
231.761	23573.62
231.833	23539.38
231.905	23489.32
231.978	23456.43
232.05	23419.3
232.122	23388.72
232.195	23345.28
232.267	23336.64
232.339	23293.82
232.412	23279.26
232.484	23239.19
232.556	23193.23
232.629	23173.8
232.701	23151.57
232.773	23124.67
232.846	23087.97
232.918	23057.59
232.99	23027.17
233.062	23000.46
233.135	22976.11
233.207	22932.43
233.279	22908.27
233.351	22875.1
233.424	22835.08
233.496	22792.17
233.568	22768.41
233.64	22714.41
233.713	22691.41
233.785	22652.41
233.857	22625.45
233.929	22574.69
234.001	22547.83
234.074	22524.36
234.146	22463.42
234.218	22421.18
234.29	22385.03
234.362	22338.75
234.434	22276.51
234.507	22227.34
234.579	22178.85
234.651	22127.85
234.723	22099.5
234.795	22071.83
234.867	22040.83
234.939	22016.64
235.012	21977.16
235.084	21949.82
235.156	21919.84
235.228	21863.4
235.3	21807.58
235.372	21759.23
235.444	21722.07
235.516	21674.39
235.588	21632.8
235.66	21598.81
235.732	21543.19
235.804	21556.5
235.876	21532.01
235.948	21521.45
236.02	21489.35
236.092	21448.15
236.164	21415.85
236.236	21375.85
236.308	21319.36
236.38	21273.09
236.452	21219.49
236.524	21186.38
236.596	21161.08
236.668	21123.48
236.74	21085.99
236.812	21058.18
236.884	21032.35
236.956	21005.4
237.028	20955.28
237.1	20909.01
237.172	20882.75
237.244	20869.3
237.316	20801.53
237.388	20753.43
237.46	20699.02
237.532	20669.91
237.604	20616.52
237.675	20587.84
237.747	20554.87
237.819	20511.26
237.891	20477.14
237.963	20432.47
238.035	20379.31
238.107	20303.12
238.178	20278.78
238.25	20230.15
238.322	20212.56
238.394	20158.73
238.466	20110.78
238.538	20076.23
238.609	20040.71
238.681	19977.92
238.753	19925.25
238.825	19873.82
238.897	19837.83
238.968	19811.51
239.04	19760.29
239.112	19760.82
239.184	19706.89
239.255	19653.4
239.327	19619.14
239.399	19569.21
239.471	19533.07
239.542	19506.81
239.614	19489.46
239.686	19421.08
239.758	19400.21
239.829	19346.24
239.901	19316.26
239.973	19278.19
240.044	19242.53
240.116	19207.5
240.188	19174.49
240.259	19129.91
240.331	19077.05
240.403	19045.19
240.474	18992.18
240.546	18944.48
240.618	18879.04
240.689	18827.57
240.761	18795.14
240.833	18770.32
240.904	18737.94
240.976	18703.77
241.048	18668.49
241.119	18633.56
241.191	18609.46
241.262	18585.41
241.334	18538.48
241.405	18489.95
241.477	18442.43
241.549	18404.89
241.62	18362.25
241.692	18337.57
241.763	18310.78
241.835	18289.67
241.906	18254.49
241.978	18211.75
242.049	18187.17
242.121	18160.47
242.192	18137.92
242.264	18081.58
242.335	18021.15
242.407	17982.74
242.478	17942.12
242.55	17902.79
242.621	17849.78
242.693	17806.22
242.764	17761.74
242.836	17720.2
242.907	17696
242.979	17662.61
243.05	17617.45
243.122	17588.15
243.193	17536.78
243.264	17486.37
243.336	17444.01
243.407	17421.45
243.479	17395.67
243.55	17367.33
243.622	17334.08
243.693	17304.06
243.764	17294.85
243.836	17255.67
243.907	17221.31
243.978	17187.96
244.05	17150.7
244.121	17107.81
244.192	17078.46
244.264	17031.71
244.335	16999.81
244.407	16945.49
244.478	16917.73
244.549	16886.84
244.62	16832.09
244.692	16793
244.763	16765.39
244.834	16719.02
244.906	16663.45
244.977	16631.21
245.048	16599.45
245.119	16558.15
245.191	16514.67
245.262	16449.37
245.333	16430.71
245.405	16396.98
245.476	16365.21
245.547	16340.01
245.618	16309.74
245.689	16287.52
245.761	16250.55
245.832	16206.6
245.903	16179.7
245.974	16146.3
246.045	16109.57
246.117	16100.13
246.188	16064.84
246.259	16012.5
246.33	15973.8
246.401	15933.69
246.473	15884.05
246.544	15844.91
246.615	15818.16
246.686	15784.18
246.757	15771.84
246.828	15730.2
246.899	15714.87
246.97	15665.46
247.042	15616.83
247.113	15589.74
247.184	15568.82
247.255	15538.84
247.326	15513.58
247.397	15481.58
247.468	15447.74
247.539	15417.42
247.61	15370.18
247.681	15342.85
247.752	15327.62
247.823	15289.4
247.894	15270.93
247.965	15235.36
248.037	15199.55
248.108	15155.49
248.179	15124.59
248.25	15089.45
248.321	15071.86
248.392	15022.02
248.463	15015.36
248.534	14988.66
248.605	14962.34
248.675	14924.12
248.746	14897.7
248.817	14881.22
248.888	14859.62
248.959	14808.81
249.03	14781.39
249.101	14753.48
249.172	14720.36
249.243	14672.2
249.314	14663.91
249.385	14637.83
249.456	14619.42
249.527	14589.29
249.598	14575.21
249.669	14542.87
249.739	14516.02
249.81	14489.89
249.881	14446.02
249.952	14409.97
250.023	14380.22
250.094	14344.36
250.165	14309.99
250.235	14272.87
250.306	14247.13
250.377	14204.23
250.448	14187.69
250.519	14147.1
250.59	14132.21
250.66	14105.21
250.731	14094.51
250.802	14058.64
250.873	14026.97
250.944	14002
251.014	13965.32
251.085	13956.5
251.156	13935.86
251.227	13928.3
251.297	13906.36
251.368	13907.13
251.439	13892.29
251.51	13884.62
251.58	13852.13
251.651	13816.31
251.722	13811.78
251.792	13762.13
251.863	13735.04
251.934	13722.5
252.005	13718.4
252.075	13683.41
252.146	13662
252.217	13651.4
252.287	13637.18
252.358	13615.72
252.429	13604.2
252.499	13580.2
252.57	13554.31
252.641	13537.29
252.711	13510.63
252.782	13480.36
252.852	13470.14
252.923	13446.57
252.994	13425.36
253.064	13411.28
253.135	13386.55
253.205	13361.19
253.276	13358.35
253.347	13356.42
253.417	13325.95
253.488	13299.92
253.558	13281.6
253.629	13255.04
253.699	13234.84
253.77	13222.55
253.841	13192.23
253.911	13168.03
253.982	13148.84
254.052	13130.48
254.123	13112.79
254.193	13086.85
254.264	13103.05
254.334	13067.38
254.405	13037.34
254.475	13004.61
254.546	12975.98
254.616	12967.01
254.687	12942.14
254.757	12925.75
254.827	12901.79
254.898	12883.04
254.968	12858.84
255.039	12822.97
255.109	12817.77
255.18	12783.73
255.25	12733.89
255.321	12725.36
255.391	12693.59
255.461	12696.48
255.532	12659.89
255.602	12634.01
255.673	12593.71
255.743	12557.84
255.813	12516.87
255.884	12504.43
255.954	12483.03
256.024	12485.87
256.095	12464.13
256.165	12429.67
256.235	12411.98
256.306	12389.56
256.376	12383.68
256.446	12374.86
256.517	12371.58
256.587	12357.12
256.657	12338.9
256.728	12327.86
256.798	12306.27
256.868	12286.12
256.938	12249.43
257.009	12231.65
257.079	12215.6
257.149	12225.57
257.219	12186.67
257.29	12174.96
257.36	12136.45
257.43	12129.89
257.5	12080.44
257.571	12051.66
257.641	12047.66
257.711	12017.63
257.781	11992.04
257.852	11979.89
257.922	11943.21
257.992	11918.82
258.062	11904.16
258.132	11893.22
258.202	11878.43
258.273	11863.92
258.343	11864.59
258.413	11845.75
258.483	11824.83
258.553	11794.03
258.623	11763.81
258.693	11746.94
258.764	11737.73
258.834	11733.05
258.904	11715.94
258.974	11688.71
259.044	11677.24
259.114	11658.83
259.184	11639.5
259.254	11618.54
259.324	11579.06
259.394	11566.48
259.464	11561.42
259.535	11534.53
259.605	11516.21
259.675	11485.08
259.745	11468.84
259.815	11434.57
259.885	11409.99
259.955	11422.67
260.025	11399.1
260.095	11380.01
260.165	11371.77
260.235	11375.58
260.305	11350.13
260.375	11322.42
260.445	11333.75
260.515	11324.44
260.585	11317.5
260.655	11302.32
260.725	11297.74
260.795	11283.67
260.865	11282.27
260.934	11257.26
261.004	11248.63
261.074	11221.94
261.144	11225.12
261.214	11214.18
261.284	11198.61
261.354	11189.21
261.424	11161.11
261.494	11162.56
261.564	11143.77
261.634	11129.02
261.703	11083.24
261.773	11075.04
261.843	11065.02
261.913	11046.61
261.983	11012.06
262.053	11004.59
262.123	10984.3
262.192	10960.35
262.262	10960.35
262.332	10930.57
262.402	10920.69
262.472	10903.44
262.541	10872.65
262.611	10863.54
262.681	10842.87
262.751	10837.91
262.821	10820.9
262.89	10789.24
262.96	10774.92
263.03	10775.94
263.1	10762.25
263.169	10751.89
263.239	10742.69
263.309	10741.92
263.379	10733.97
263.448	10727.56
263.518	10709.63
263.588	10691.8
263.657	10691.8
263.727	10686.55
263.797	10674.94
263.867	10661.74
263.936	10639.19
264.006	10645.59
264.076	10629.88
264.145	10605.94
264.215	10582.14
264.285	10579
264.354	10550.39
264.424	10534.53
264.494	10508.03
264.563	10491.31
264.633	10501.43
264.702	10491.51
264.772	10451.47
264.842	10431.18
264.911	10416.83
264.981	10388.45
265.05	10380.11
265.12	10357.37
265.19	10343.3
265.259	10336.7
265.329	10326.01
265.398	10309.72
265.468	10317.82
265.537	10293.44
265.607	10295.46
265.676	10291.17
265.746	10280.86
265.815	10281.44
265.885	10261.07
265.955	10235.49
266.024	10213.81
266.094	10174.16
266.163	10172.71
266.232	10178.11
266.302	10164.19
266.371	10160.38
266.441	10152.62
266.51	10152.43
266.58	10143.09
266.649	10118.27
266.719	10112.44
266.788	10103.2
266.858	10107.15
266.927	10065.38
266.996	10060.47
267.066	10047.41
267.135	10023.81
267.205	10015.91
267.274	10002.71
267.343	10008.97
267.413	10000.06
267.482	9997.32
267.552	10000.59
267.621	9969.23
267.69	9947.46
267.76	9936.19
267.829	9921.74
267.898	9905.74
267.968	9881.76
268.037	9871.02
268.106	9868.22
268.176	9845.44
268.245	9830.07
268.314	9812.97
268.384	9815.19
268.453	9803.24
268.522	9791.25
268.592	9794.43
268.661	9771.79
268.73	9769.62
268.799	9747.03
268.869	9752.67
268.938	9727.33
269.007	9706.33
269.076	9694.58
269.146	9691.11
269.215	9686.54
269.284	9693.38
269.353	9685.96
269.422	9670.6
269.492	9656.78
269.561	9617.1
269.63	9611.12
269.699	9593.79
269.768	9581.07
269.838	9577.03
269.907	9571.49
269.976	9548.66
270.045	9513.17
270.114	9516.06
270.183	9500.46
270.253	9494.05
270.322	9462.46
270.391	9457.31
270.46	9466.07
270.529	9469.64
270.598	9462.75
270.667	9442.53
270.736	9420.42
270.806	9408.62
270.875	9416.09
270.944	9405.49
271.013	9427.5
271.082	9418.69
271.151	9419.65
271.22	9393.5
271.289	9376.99
271.358	9364.71
271.427	9361.91
271.496	9357.82
271.565	9337.65
271.634	9326.23
271.703	9349.35
271.772	9357.34
271.841	9340.3
271.91	9316.17
271.979	9307.17
272.048	9284.35
272.117	9289.02
272.186	9271.01
272.255	9273.7
272.324	9264.36
272.393	9259.69
272.462	9239.9
272.531	9226.56
272.6	9216.11
272.669	9222.28
272.738	9208.36
272.807	9194.4
272.876	9172.11
272.945	9196.67
273.013	9200.66
273.082	9201.91
273.151	9159.54
273.22	9155.35
273.289	9155.54
273.358	9162.14
273.427	9148.37
273.496	9151.3
273.564	9149.28
273.633	9153.18
273.702	9128.19
273.771	9114.23
273.84	9103.21
273.909	9104.99
273.977	9108.36
274.046	9093.43
274.115	9103.02
274.184	9086.6
274.253	9089.2
274.322	9099.65
274.39	9064.5
274.459	9051.74
274.528	9022.09
274.597	9012.75
274.665	9013.57
274.734	9017.57
274.803	9003.6
274.872	8995.32
274.94	8976.98
275.009	8998.22
275.078	8983.2
275.147	8984.11
275.215	8985.75
275.284	8995.76
275.353	8984.59
275.421	8957.88
275.49	8976.12
275.559	8955.37
275.627	8954.51
275.696	8947.62
275.765	8949.31
275.833	8945.6
275.902	8944.45
275.971	8959.66
276.039	8972.51
276.108	8970.49
276.177	8968.9
276.245	8957.4
276.314	8955.57
276.383	8961.29
276.451	8927.54
276.52	8932.88
276.588	8941.84
276.657	8943.04
276.725	8932.06
276.794	8928.45
276.863	8943.33
276.931	8918.97
277	8930.52
277.068	8941.25
277.137	8959.69
277.205	8949.92
277.274	8967.49
277.342	8972.93
277.411	8950.5
277.48	8938.8
277.548	8924.07
277.617	8917
277.685	8915.6
277.754	8914.25
277.822	8911.22
277.89	8926.58
277.959	8913.49
278.027	8898.56
278.096	8887.4
278.164	8916.67
278.233	8912.67
278.301	8897.42
278.37	8904.2
278.438	8885.67
278.507	8892.17
278.575	8862.42
278.643	8864.34
278.712	8843.74
278.78	8832.96
278.849	8847.88
278.917	8857.07
278.985	8854.42
279.054	8858.47
279.122	8866.94
279.191	8866.94
279.259	8866.65
279.327	8839.93
279.396	8852.35
279.464	8843.54
279.532	8847.64
279.601	8836.37
279.669	8836.66
279.737	8849.56
279.806	8850.66
279.874	8864.96
279.942	8856.87
280.011	8857.4
280.079	8858.56
280.147	8874.49
280.215	8872.61
280.284	8866.5
280.352	8853.07
280.42	8859.52
280.488	8847.77
280.557	8837.86
280.625	8836.08
280.693	8832.27
280.761	8841.52
280.83	8829.53
280.898	8847.82
280.966	8830.88
281.034	8800.17
281.102	8777.07
281.171	8770.28
281.239	8778.66
281.307	8770.33
281.375	8756.9
281.443	8775.72
281.512	8774.04
281.58	8780.49
281.648	8770.57
281.716	8774.57
281.784	8772.31
281.852	8770.72
281.92	8772.64
281.989	8786.26
282.057	8767.4
282.125	8810.78
282.193	8803.85
282.261	8806.3
282.329	8795.42
282.397	8799.03
282.465	8802.31
282.533	8819
282.601	8813.33
282.67	8789.93
282.738	8782.28
282.806	8795.08
282.874	8784.3
282.942	8785.74
283.01	8778.76
283.078	8782.37
283.146	8775.54
283.214	8783.86
283.282	8777.99
283.35	8791.71
283.418	8782.8
283.486	8792.14
283.554	8741.25
283.622	8735.57
283.69	8736.29
283.758	8732.93
283.826	8737.74
283.894	8749
283.962	8771.29
284.03	8783.9
284.098	8783.08
284.165	8776.3
284.233	8771.29
284.301	8764.6
284.369	8760.08
284.437	8751.07
284.505	8746.98
284.573	8767.25
284.641	8757.19
284.709	8764.07
284.777	8754.54
284.845	8763.93
284.912	8773.31
284.98	8785.59
285.048	8784.62
285.116	8787.94
285.184	8803.49
285.252	8807.25
285.319	8788.96
285.387	8778.22
285.455	8759.11
285.523	8767.29
285.591	8764.21
285.659	8763.59
285.726	8770.42
285.794	8754.4
285.862	8750.07
285.93	8748.57
285.997	8735.91
286.065	8731.78
286.133	8728.31
286.201	8718.25
286.269	8701.11
286.336	8688.17
286.404	8678.3
286.472	8692.64
286.539	8667.33
286.607	8650.05
286.675	8646.06
286.743	8658.62
286.81	8644.03
286.878	8661.02
286.946	8652.65
287.013	8652.5
287.081	8657.99
287.149	8645.81
287.216	8661.31
287.284	8664.25
287.352	8660.49
287.419	8660.3
287.487	8675.03
287.555	8674.4
287.622	8671.66
287.69	8679.89
287.758	8698.04
287.825	8692.98
287.893	8681.81
287.96	8691.39
288.028	8698.47
288.096	8694.61
288.163	8692.35
288.231	8693.84
288.298	8690.38
288.366	8706.12
288.433	8702.8
288.501	8698.03
288.569	8704.53
288.636	8703.86
288.704	8712.71
288.771	8726.33
288.839	8712.62
288.906	8705.11
288.974	8714.4
289.041	8710.98
289.109	8698.18
289.176	8702.61
289.244	8709.11
289.311	8722.2
289.379	8734.52
289.446	8733.99
289.514	8742.08
289.581	8746.07
289.649	8744.58
289.716	8748.77
289.783	8738.37
289.851	8759.45
289.918	8754.25
289.986	8761.95
290.053	8760.85
290.121	8756.75
290.188	8757.57
290.255	8789.73
290.323	8789.2
290.39	8780.05
290.458	8787.46
290.525	8800.74
290.592	8795.93
290.66	8795.4
290.727	8783.42
290.794	8793.67
290.862	8803.78
290.929	8808.64
290.996	8801.42
291.064	8814.03
291.131	8829.15
291.198	8842.43
291.266	8847.1
291.333	8852.88
291.4	8857.35
291.468	8878.68
291.535	8880.99
291.602	8882.48
291.669	8878.49
291.737	8880.51
291.804	8886.14
291.871	8905.15
291.938	8916.61
292.006	8944.97
292.073	8965.81
292.14	8978.62
292.207	8973.13
292.275	8970.77
292.342	8974.77
292.409	9002.4
292.476	9020.21
292.543	9010.05
292.611	9012.03
292.678	9025.41
292.745	9044.47
292.812	9051.94
292.879	9045.58
292.946	9043.65
293.014	9057.95
293.081	9058.53
293.148	9074.61
293.215	9096.85
293.282	9089.05
293.349	9100.37
293.416	9077.64
293.484	9087.9
293.551	9101.33
293.618	9117.41
293.685	9141.1
293.752	9139.65
293.819	9141.29
293.886	9132.43
293.953	9135.22
294.02	9145.09
294.087	9148.22
294.154	9148.8
294.221	9166.86
294.288	9166.91
294.356	9194.64
294.423	9200.13
294.49	9194.69
294.557	9204.65
294.624	9186.69
294.691	9209.95
294.758	9203.5
294.825	9212.74
294.892	9200.56
294.959	9201.62
295.026	9210.14
295.093	9199.79
295.16	9203.45
295.226	9206.96
295.293	9230.17
295.36	9242.54
295.427	9254.87
295.494	9268.69
295.561	9272.16
295.628	9290.65
295.695	9304.04
295.762	9302.4
295.829	9314.87
295.896	9336.64
295.963	9341.26
296.03	9355.12
296.096	9365.43
296.163	9381.03
296.23	9393.74
296.297	9413.44
296.364	9406.65
296.431	9415.03
296.498	9410.93
296.564	9430.53
296.631	9430.43
296.698	9415.22
296.765	9425.62
296.832	9417.14
296.899	9406.74
296.965	9431.54
297.032	9414.06
297.099	9434.62
297.166	9442.57
297.233	9437.17
297.299	9430.24
297.366	9434.67
297.433	9437.22
297.5	9439.54
297.566	9438.33
297.633	9439.78
297.7	9443.68
297.767	9441.75
297.833	9446.04
297.9	9454.7
297.967	9440.31
298.033	9454.9
298.1	9487.65
298.167	9486.83
298.234	9487.07
298.3	9493.71
298.367	9481.29
298.434	9489.86
298.5	9475.75
298.567	9471.42
298.634	9471.27
298.7	9485.72
298.767	9490
298.834	9500.07
298.9	9493.04
298.967	9488.51
299.033	9503.44
299.1	9514.04
299.167	9533.01
299.233	9523.91
299.3	9538.5
299.366	9557.18
299.433	9565.42
299.5	9536.23
299.566	9539.51
299.633	9564.36
299.699	9572.83
299.766	9575.19
299.832	9581.07
299.899	9590.46
299.965	9603.9
300.032	9598.46
300.099	9611.51
300.165	9617.24
300.232	9615.84
300.298	9620.08
300.365	9636.26
300.431	9631.73
300.498	9627.74
300.564	9636.21
300.631	9654.61
300.697	9667.13
300.763	9670.12
300.83	9670.41
300.896	9687.79
300.963	9693.96
301.029	9694.58
301.096	9704.12
301.162	9713.61
301.229	9706.09
301.295	9700.65
301.361	9705.08
301.428	9715.15
301.494	9699.01
301.561	9697.09
301.627	9700.22
301.693	9699.21
301.76	9702.19
301.826	9695.98
301.892	9708.41
301.959	9718.86
302.025	9710.19
302.092	9708.12
302.158	9706.09
302.224	9709.13
302.291	9698.2
302.357	9695.16
302.423	9683.94
302.49	9671.46
302.556	9682.83
302.622	9686.4
302.688	9694.92
302.755	9702.34
302.821	9708.21
302.887	9715
302.954	9719.82
303.02	9729.45
303.086	9742.26
303.152	9737.06
303.219	9737.59
303.285	9735.52
303.351	9735.81
303.417	9738.51
303.483	9726.08
303.55	9728.83
303.616	9727.72
303.682	9730.42
303.748	9727.53
303.815	9743.76
303.881	9756.86
303.947	9743.95
304.013	9743.61
304.079	9740.77
304.145	9723.19
304.212	9720.16
304.278	9718.76
304.344	9711.25
304.41	9697.76
304.476	9682.49
304.542	9675.94
304.608	9682.88
304.674	9668.58
304.741	9664.53
304.807	9668.67
304.873	9674.79
304.939	9692.9
305.005	9672.43
305.071	9670.65
305.137	9672.43
305.203	9647.72
305.269	9642.71
305.335	9657.31
305.401	9653.5
305.467	9649.46
305.533	9656.1
305.599	9669.54
305.666	9672.14
305.732	9675.51
305.798	9695.26
305.864	9728.83
305.93	9736.49
305.996	9729.46
306.062	9727.72
306.128	9724.64
306.194	9713.61
306.259	9712.65
306.325	9695.55
306.391	9713.9
306.457	9723.24
306.523	9724.83
306.589	9750.36
306.655	9738.7
306.721	9717.13
306.787	9698.78
306.853	9708.46
306.919	9692.57
306.985	9682.64
307.051	9680.91
307.117	9681.63
307.183	9668.15
307.248	9634.57
307.314	9640.31
307.38	9645.94
307.446	9653.5
307.512	9643.82
307.578	9646.76
307.644	9643.05
307.709	9647.96
307.775	9636.4
307.841	9629.28
307.907	9626.77
307.973	9611.21
308.039	9615.65
308.104	9620.65
308.17	9624.07
308.236	9617.72
308.302	9619.79
308.368	9608.47
308.433	9605.82
308.499	9591.08
308.565	9578.27
308.631	9578.32
308.696	9554.19
308.762	9543.12
308.828	9543.98
308.894	9524.77
308.959	9504.06
309.025	9491.21
309.091	9485.19
309.156	9480.61
309.222	9485.38
309.288	9473.24
309.354	9450.9
309.419	9446.76
309.485	9433.9
309.551	9444.01
309.616	9425.47
309.682	9419.74
309.748	9408.57
309.813	9402.21
309.879	9398.75
309.945	9387.67
310.01	9385.02
310.076	9384.64
310.141	9373.9
310.207	9354.83
310.273	9359.65
310.338	9360.18
310.404	9345.73
310.469	9332.68
310.535	9320.4
310.601	9293.2
310.666	9296.81
310.732	9306.44
310.797	9292.66
310.863	9286.41
310.928	9278.94
310.994	9279.66
311.059	9280.77
311.125	9278.89
311.191	9285.63
311.256	9271.19
311.322	9281.54
311.387	9258.43
311.453	9704.52
311.518	9680.5
311.584	9682.62
311.649	9686.28
311.715	9676.36
311.78	9680.45
311.846	9667.84
311.911	9682.09
311.976	9684.26
312.042	9670.77
312.107	9648.77
312.173	9645.4
312.238	9635.05
312.304	9628.84
312.369	9623.01
312.434	9610.06
312.5	9607.12
312.565	9576.36
312.631	9580.98
312.696	9569.33
312.761	9570.34
312.827	9113.65
312.892	9154.19
312.958	9145
313.023	9147.02
313.088	9155.3
313.154	9148.95
313.219	9138.74
313.284	9118.81
313.35	9112.79
313.415	9100.22
313.48	9097.38
313.546	9099.12
313.611	9105.28
313.676	9089.01
313.741	9076.39
313.807	9085.2
313.872	9084.1
313.937	9087.95
314.003	9101
314.068	9102.49
314.133	9109.23
314.198	9105.57
314.264	9086.5
314.329	9079.66
314.394	9071.09
314.459	9059.83
314.525	9074.95
314.59	9069.6
314.655	9061.37
314.72	9066.86
314.785	9072.88
314.851	9069.55
314.916	9049.96
314.981	9037.15
315.046	9034.75
315.111	9027.09
315.176	9012.22
315.242	9017.9
315.307	9018.24
315.372	8998.69
315.437	8984.53
315.502	8977.51
315.567	8991.52
315.632	8968.65
315.698	8968.75
315.763	8961.04
315.828	8952.67
315.893	8943.04
315.958	8941.98
316.023	8933.12
316.088	8915.07
316.153	8894.47
316.218	8889.66
316.283	8876.32
316.348	8859.24
316.413	8854.76
316.479	8838.69
316.544	8802.26
316.609	8772.94
316.674	8736.9
316.739	8697.24
316.804	8669.43
316.869	8636.99
316.934	8592.95
316.999	8572.11
317.064	8519.03
317.129	8476.06
317.194	8438.62
317.259	8388.24
317.324	8336.42
317.389	8292.93
317.454	8255.35
317.518	8216.1
317.583	8187.85
317.648	8154.9
317.713	8121.42
317.778	8058.54
317.843	8034.2
317.908	8002.17
317.973	7961.43
318.038	7933.58
318.103	7901.93
318.168	7867.64
318.233	7833.45
318.297	7779.49
318.362	7735.2
318.427	7698.04
318.492	7673.27
318.557	7625.34
318.622	7599.18
318.687	7574.95
318.751	7536.88
318.816	7505.63
318.881	7474.63
318.946	7415.88
319.011	7370.36
319.075	7328.45
319.14	7296.97
319.205	7248.57
319.27	7214.69
319.335	7168.65
319.399	7125.4
319.464	7092.96
319.529	7038.82
319.594	6998.93
319.658	6972.37
319.723	6933.69
319.788	6903.14
319.853	6846.93
319.917	6820.04
319.982	6762.82
320.047	6726.37
320.112	6695.3
320.176	6642.13
320.241	6610.38
320.306	6583.49
320.37	6547.05
320.435	6515.07
320.5	6487.41
320.564	6448.24
320.629	6404.7
320.694	6376.09
320.758	6336.39
320.823	6288.35
320.888	6265.84
320.952	6216.65
321.017	6173.07
321.082	6132.28
321.146	6097.64
321.211	6060.88
321.275	6019.96
321.34	5977.56
321.405	5933.34
321.469	5882.88
321.534	5840.01
321.598	5786.91
321.663	5750.98
321.727	5720.33
321.792	5670.03
321.857	5626.34
321.921	5590.52
321.986	5552.13
322.05	5491.87
322.115	5454.43
322.179	5410.11
322.244	5351.88
322.308	5319.63
322.373	5274.06
322.437	5233.9
322.502	5206.2
322.566	5162.55
322.631	5125.14
322.695	5087.64
322.76	5043.48
322.824	5011.92
322.889	4972.71
322.953	4928.57
323.018	4866.42
323.082	4801.74
323.146	4752.25
323.211	4697.25
323.275	4647.37
323.34	4600.19
323.404	4565.79
323.468	4520.13
323.533	4481.72
323.597	4438.49
323.662	4387.34
323.726	4356.01
323.79	4307.03
323.855	4243.92
323.919	4194.62
323.983	4149.91
324.048	4082.54
324.112	4238.87
324.177	4108.57
324.241	3896.35
324.305	3688.2
324.37	3484.83
324.434	3288.72
324.498	3245.07
324.562	3196.86
324.627	3138.23
324.691	3083.1
324.755	3016.74
324.82	2939.86
324.884	2860.39
324.948	2787.06
325.012	2689.39
325.077	2557.35
