Data from 20250701_urea_2M_exp3_MAYP1162681_04-09-49-279.txt Node
Date: Wed Jul 02 04:09:49 BST 2025
User: adleo
Spectrometer: MAYP116268
Trigger mode: 0
Integration Time (sec): 4.000000E0
Scans to average: 1
Electric dark correction enabled: true
Nonlinearity correction enabled: true
Boxcar width: 10
XAxis mode: Wavelengths
Number of Pixels in Spectrum: 2068
>>>>>Begin Spectral Data<<<<<
179.565	3601.75
179.642	3790.47
179.718	3936.06
179.795	4064.88
179.871	4179.81
179.948	4241.5
180.024	4312.38
180.101	4386.74
180.177	4437.91
180.254	4517.75
180.33	4591.13
180.407	4853.67
180.483	5137.45
180.56	5419.21
180.636	5681.09
180.712	5639.53
180.789	5675.26
180.865	5712.21
180.942	5743.28
181.018	5783.42
181.095	5831.36
181.171	5848.05
181.248	5850.26
181.324	5902.57
181.4	5929.92
181.477	5962.31
181.553	6008.82
181.63	6078.69
181.706	6144.02
181.782	6171.39
181.859	6168.47
181.935	6188.05
182.011	6173.32
182.088	6220.83
182.164	6291.77
182.24	6339.74
182.317	6372.08
182.393	6365.5
182.469	6416.47
182.546	6459.63
182.622	6474.99
182.698	6459.15
182.775	6503.22
182.851	6552.9
182.927	6529.71
183.003	6515.17
183.08	6496.84
183.156	6522.57
183.232	6508.4
183.308	6459
183.385	6485.01
183.461	6541.14
183.537	6544.84
183.613	6588.24
183.69	6564.04
183.766	6523.01
183.842	6545.2
183.918	6563.11
183.995	6606.37
184.071	6614.15
184.147	6596.33
184.223	6556.74
184.299	6599.59
184.375	6560.66
184.452	6579.45
184.528	6706.66
184.604	6741.22
184.68	6781.5
184.756	6808.12
184.832	6823.73
184.908	6842.88
184.985	6841.24
185.061	6791.64
185.137	6820.51
185.213	6786.22
185.289	6791.79
185.365	6771.82
185.441	6765.43
185.517	6810.7
185.593	6793.41
185.669	6786.49
185.745	6816.18
185.822	6873.05
185.898	6847.2
185.974	6880.04
186.05	6864.85
186.126	6786.63
186.202	6766.32
186.278	6753.74
186.354	6720.35
186.43	6745.25
186.506	6737.23
186.582	6736.7
186.658	6756.43
186.734	6692.29
186.81	6694.26
186.886	6703.04
186.962	6741.6
187.038	6727.96
187.114	6700.85
187.19	6730.63
187.266	6701.49
187.341	6704.9
187.417	6683.63
187.493	6681.61
187.569	6694.82
187.645	6664.13
187.721	6631.08
187.797	6654.8
187.873	6669.79
187.949	6655.19
188.025	6628.95
188.101	6641.24
188.176	6653.63
188.252	6641.97
188.328	6669.41
188.404	6670.85
188.48	6655.63
188.556	6632.48
188.632	6634.55
188.707	6636.71
188.783	6627.2
188.859	6609.11
188.935	6569.96
189.011	6591.14
189.086	6567.43
189.162	6537.99
189.238	6528.15
189.314	6513.41
189.39	6491.13
189.465	6467.3
189.541	6519.23
189.617	6473.81
189.693	6457.11
189.768	6472.81
189.844	6551.28
189.92	6523.83
189.996	6548.85
190.071	6583.62
190.147	6581.99
190.223	6610.28
190.298	6585.3
190.374	6541.32
190.45	6584.28
190.526	6616.21
190.601	6603.01
190.677	6612.37
190.753	6702.48
190.828	6714.77
190.904	6767.56
190.98	6819.11
191.055	6856.82
191.131	6829.67
191.207	6901.85
191.282	6934.79
191.358	6903
191.433	6848.87
191.509	6890.53
191.585	6887.03
191.66	6890.01
191.736	6917.53
191.811	6892.88
191.887	6945.89
191.963	7025.63
192.038	7044.13
192.114	7044.32
192.189	7053.63
192.265	7037.6
192.34	6967.37
192.416	6966.98
192.491	6951.31
192.567	6957.9
192.642	6962.51
192.718	6958.91
192.793	6911.68
192.869	6898
192.944	6906.11
193.02	6934.51
193.095	6947.48
193.171	6963.14
193.246	6959.15
193.322	6945.41
193.397	6939.51
193.473	6896.63
193.548	6833.35
193.624	6849.65
193.699	6843.74
193.775	6898.1
193.85	6905.44
193.925	6935.91
194.001	6933.8
194.076	6908.96
194.152	6878.4
194.227	6853.12
194.302	6825.37
194.378	6841.99
194.453	6832.77
194.529	6875.48
194.604	6830.66
194.679	6807.8
194.755	6745.44
194.83	6791.87
194.905	6792.02
194.981	6822.57
195.056	6796.74
195.131	6818.39
195.207	6813.54
195.282	6780.69
195.357	6708.66
195.433	6758.13
195.508	6716.52
195.583	6745.82
195.659	6791.08
195.734	6809.82
195.809	6807.47
195.884	6833.29
195.96	6830.89
196.035	6880.99
196.11	6864.65
196.185	6898.66
196.261	6909.51
196.336	7014.33
196.411	6957.9
196.486	6973.89
196.561	6955.01
196.637	6979.69
196.712	7031.37
196.787	7042.09
196.862	7097.95
196.937	7138.59
197.013	7163.01
197.088	7195.2
197.163	7264.92
197.238	7324.81
197.313	7327.55
197.388	7371
197.464	7475.77
197.539	7515.71
197.614	7485.87
197.689	7528.85
197.764	7589.83
197.839	7660.78
197.914	7637.94
197.989	7716.3
198.065	7753.75
198.14	7919.51
198.215	8012.71
198.29	8054.57
198.365	8095.26
198.44	8129.93
198.515	8225.67
198.59	8272.29
198.665	8363.41
198.74	8384.01
198.815	8391.13
198.89	8468.01
198.965	8567.83
199.04	8554.21
199.115	8606.55
199.19	8754
199.265	8753.47
199.34	8779.56
199.415	8885.63
199.49	8959.39
199.565	8990.48
199.64	9078.66
199.715	9071.24
199.79	9090.69
199.865	9110.81
199.94	9107.49
200.015	9211.29
200.09	9227.57
200.165	9248.32
200.24	9264.88
200.315	9401.36
200.39	9445.81
200.464	9463.53
200.539	9468.44
200.614	9515.91
200.689	9589.06
200.764	9611.31
200.839	9682.11
200.914	9702
200.989	9670.83
201.063	9721.16
201.138	9664.04
201.213	9658.79
201.288	9593.54
201.363	9616.65
201.438	9613.62
201.512	9663.78
201.587	9604.88
201.662	9612.87
201.737	9652.75
201.812	9681.5
201.886	9570.06
201.961	9604.7
202.036	9561.09
202.111	9552.13
202.186	9458
202.26	9399.72
202.335	9329.89
202.41	9306.35
202.485	9253.5
202.559	9187.64
202.634	9090.29
202.709	9121.03
202.784	9054.46
202.858	9050.13
202.933	8978.93
203.008	8954.33
203.082	8893.02
203.157	8888.25
203.232	8746.33
203.306	8671.51
203.381	8563.72
203.456	8484.46
203.53	8405.04
203.605	8340.75
203.68	8260.08
203.754	8238.3
203.829	8194.08
203.904	8124.32
203.978	8082.41
204.053	8095.31
204.127	8051.35
204.202	8054.14
204.277	7994.6
204.351	7974.83
204.426	7953.42
204.5	7928.31
204.575	7823.07
204.65	7850.64
204.724	7826.05
204.799	7853.05
204.873	7845.88
204.948	7838.14
205.022	7797.1
205.097	7767.21
205.171	7813.6
205.246	7837.23
205.32	7836.12
205.395	7827.99
205.469	7797.19
205.544	7815.23
205.618	7753.24
205.693	7800.09
205.767	7758.35
205.842	7826.6
205.916	7805.54
205.991	7772.02
206.065	7791.79
206.14	7833.39
206.214	7817.56
206.289	7793.45
206.363	7834.23
206.438	7839.96
206.512	7867.81
206.586	7936.27
206.661	7963.37
206.735	7896.99
206.81	7902.19
206.884	7950.12
206.958	7911.61
207.033	7966.02
207.107	7992.3
207.181	8098.92
207.256	8073.33
207.33	8133.25
207.405	8184.77
207.479	8252.89
207.553	8276.59
207.628	8217.51
207.702	8267.34
207.776	8247.76
207.851	8256.22
207.925	8306.81
207.999	8298.25
208.073	8285.59
208.148	8294.4
208.222	8256.86
208.296	8360.2
208.371	8416.68
208.445	8455.66
208.519	8547.15
208.593	8586.89
208.668	8573.79
208.742	8580.34
208.816	8582.89
208.89	8623.71
208.965	8613.74
209.039	8636.85
209.113	8697.64
209.187	8771.25
209.261	8752.1
209.336	8811.53
209.41	8881.23
209.484	8874.88
209.558	8947.42
209.632	8996.41
209.707	9031.94
209.781	9102.74
209.855	9154.51
209.929	9207.6
210.003	9225.61
210.077	9225.56
210.151	9383.91
210.226	9491.51
210.3	9583.92
210.374	9664.02
210.448	9682.65
210.522	9710.21
210.596	9746.76
210.67	9778.3
210.744	9931.57
210.818	10037.05
210.892	10110.31
210.966	10087.83
211.041	10144.32
211.115	10132.62
211.189	10210.5
211.263	10265.7
211.337	10285.26
211.411	10330.88
211.485	10317.25
211.559	10356.06
211.633	10360.88
211.707	10256.17
211.781	10284.55
211.855	10162.67
211.929	10134.12
212.003	10070.95
212.077	10098.41
212.151	10132.09
212.225	10151.99
212.299	10111.22
212.373	10073.84
212.447	10053.84
212.52	10149.27
212.594	10158.57
212.668	10190.17
212.742	10136.36
212.816	10118.1
212.89	10099.41
212.964	10084.09
213.038	10080.91
213.112	10121.38
213.186	10169.64
213.26	10094.68
213.333	9932.76
213.407	9941.86
213.481	9944.89
213.555	9972.9
213.629	9929.59
213.703	9870
213.777	9858.44
213.85	9792.59
213.924	9893.77
213.998	9889.34
214.072	9854.21
214.146	9788.99
214.219	9770.93
214.293	9755.04
214.367	9746.51
214.441	9766.98
214.515	9720.25
214.588	9629.14
214.662	9492.86
214.736	9415.91
214.81	9430.45
214.883	9450.17
214.957	9402.53
215.031	9347.91
215.105	9260.41
215.178	9204.55
215.252	9161.42
215.326	9063.59
215.4	8974.91
215.473	8788.52
215.547	8700.5
215.621	8635.19
215.694	8637.45
215.768	8539.17
215.842	8465.55
215.915	8395.02
215.989	8276.91
216.063	8218.03
216.136	8197.39
216.21	8174.83
216.284	8183.3
216.357	8156.79
216.431	8115.81
216.504	8112.68
216.578	8171.73
216.652	8180.86
216.725	8151.99
216.799	8161.38
216.873	8142.38
216.946	8150.74
217.02	8116.91
217.093	8084.49
217.167	7988.87
217.24	7907.46
217.314	7869.97
217.387	7827.87
217.461	7777.23
217.535	7801.66
217.608	7741.46
217.682	7714.43
217.755	7725.97
217.829	7663.24
217.902	7648.62
217.976	7628.48
218.049	7579.29
218.123	7496.01
218.196	7495.67
218.27	7462.54
218.343	7387.89
218.417	7385.68
218.49	7362.37
218.563	7405.1
218.637	7413.42
218.71	7483.38
218.784	7508.77
218.857	7540.21
218.931	7561.15
219.004	7573.6
219.077	7594.49
219.151	7613.71
219.224	7606.98
219.298	7606.02
219.371	7656.66
219.444	7615.76
219.518	7622.78
219.591	7640.03
219.665	7746.34
219.738	7758.21
219.811	7738.46
219.885	7786.79
219.958	7819.64
220.031	7820.6
220.105	7842.96
220.178	7847.77
220.251	7823.38
220.325	7848.74
220.398	7873.12
220.471	7889.37
220.544	7922.07
220.618	7893.11
220.691	7924.13
220.764	7939.28
220.838	7962.75
220.911	7941.39
220.984	8026.36
221.057	8061.32
221.131	8085.89
221.204	7988.63
221.277	8058.2
221.35	8179.67
221.424	8167.4
221.497	8177.99
221.57	8203.71
221.643	8234.85
221.716	8285.66
221.79	8288.36
221.863	8299.76
221.936	8306.64
222.009	8322.56
222.082	8358.37
222.155	8373.37
222.229	8432.72
222.302	8464.23
222.375	8470.82
222.448	8513.55
222.521	8516.2
222.594	8522.02
222.667	8495.43
222.74	8550.85
222.814	8544.5
222.887	8530.49
222.96	8589.2
223.033	8630.65
223.106	8656.28
223.179	8683.44
223.252	8692.11
223.325	8724.63
223.398	8734.84
223.471	8761.45
223.544	8786.03
223.617	8793.54
223.69	8819.24
223.763	8780.97
223.837	8803.97
223.91	8832.33
223.983	8783.44
224.056	8750.14
224.129	8770.79
224.202	8823.7
224.275	8815.66
224.348	8792.84
224.42	8756.21
224.493	8699.43
224.566	8671.89
224.639	8694.75
224.712	8675.73
224.785	8657.82
224.858	8649.2
224.931	8635.63
225.004	8594.54
225.077	8589.77
225.15	8498.99
225.223	8492.88
225.296	8576.09
225.369	8518.3
225.442	8483.12
225.514	8502.17
225.587	8529.74
225.66	8530.65
225.733	8531.86
225.806	8537.29
225.879	8525.94
225.952	8496.74
226.025	8538.8
226.097	8599.04
226.17	8582.15
226.243	8511.03
226.316	8513.73
226.389	8518.78
226.461	8536.4
226.534	8559.4
226.607	8551.75
226.68	8640.84
226.753	8637.91
226.825	8552.91
226.898	8613.4
226.971	8621.58
227.044	8638.95
227.117	8638.85
227.189	8657.77
227.262	8699.37
227.335	8716.79
227.407	8714.82
227.48	8746.28
227.553	8761.25
227.626	8726.91
227.698	8738.41
227.771	8780.6
227.844	8753.26
227.916	8770.64
227.989	8735.5
228.062	8730.02
228.134	8816.77
228.207	8813.16
228.28	8807.58
228.352	8820.72
228.425	8822.98
228.498	8871.79
228.57	8851.44
228.643	8914.27
228.716	8922.12
228.788	8903.63
228.861	8898.72
228.934	8963.95
229.006	8975.5
229.079	8977.9
229.151	8971.4
229.224	8937.34
229.296	8962.08
229.369	9069.85
229.442	9116.99
229.514	9097.89
229.587	9143.53
229.659	9074.91
229.732	9083.87
229.804	9123.53
229.877	9201.45
229.949	9234.78
230.022	9285.6
230.094	9287.09
230.167	9267.05
230.239	9220.22
230.312	9213.82
230.384	9281.1
230.457	9272.72
230.529	9280.37
230.602	9284.03
230.674	9300.16
230.747	9347.42
230.819	9372.7
230.892	9256.22
230.964	9256.03
231.037	9284.7
231.109	9269.39
231.181	9308.72
231.254	9271.75
231.326	9253.17
231.399	9227.2
231.471	9197.3
231.544	9113.59
231.616	9158.35
231.688	9172.32
231.761	9162.41
231.833	9149.85
231.905	9066.39
231.978	9060.52
232.05	9045.16
232.122	9045.93
232.195	9015.79
232.267	9051.57
232.339	9034.18
232.412	9100.8
232.484	9073.3
232.556	9046.79
232.629	9118.7
232.701	9132.62
232.773	9151.48
232.846	9142.96
232.918	9150.38
232.99	9170.22
233.062	9213.12
233.135	9225.74
233.207	9189.72
233.279	9237.46
233.351	9270.92
233.424	9274.72
233.496	9256.24
233.568	9338.96
233.64	9303.48
233.713	9320.24
233.785	9312.29
233.857	9323.9
233.929	9272.96
234.001	9340.26
234.074	9407.16
234.146	9335.78
234.218	9332.41
234.29	9335.97
234.362	9325.39
234.434	9283.29
234.507	9243.24
234.579	9190.66
234.651	9174.53
234.723	9199.42
234.795	9212.57
234.867	9205.01
234.939	9265.63
235.012	9284.7
235.084	9286.38
235.156	9325.48
235.228	9304.1
235.3	9285.9
235.372	9296.59
235.444	9357.88
235.516	9277.58
235.588	9286.83
235.66	9303.58
235.732	9281
235.804	9473.35
235.876	9525.39
235.948	9589.84
236.02	9609.96
236.092	9628.15
236.164	9636.96
236.236	9637.11
236.308	9635.37
236.38	9662.34
236.452	9642.21
236.524	9656.03
236.596	9721.18
236.668	9749.21
236.74	9778.44
236.812	9814.6
236.884	9853.72
236.956	9860.61
237.028	9857.91
237.1	9838.94
237.172	9912.59
237.244	9986.19
237.316	9871.58
237.388	9847.6
237.46	9826.4
237.532	9882.7
237.604	9871.29
237.675	9948.18
237.747	9996.88
237.819	9990.67
237.891	9992.83
237.963	9981.08
238.035	9978.1
238.107	9864.93
238.178	9933.3
238.25	9938.26
238.322	10023.5
238.394	9972.59
238.466	9980.05
238.538	10021.71
238.609	10063.61
238.681	10005.27
238.753	9982.48
238.825	9995.92
238.897	10024.67
238.968	10101.77
239.04	10087.51
239.112	10205.57
239.184	10160.33
239.255	10155.95
239.327	10185.61
239.399	10216.59
239.471	10261.24
239.542	10295.48
239.614	10362.97
239.686	10282.46
239.758	10335.01
239.829	10299.25
239.901	10362.79
239.973	10377.82
240.044	10417.04
240.116	10427.16
240.188	10441.94
240.259	10456.49
240.331	10449.65
240.403	10488.96
240.474	10439.8
240.546	10428.19
240.618	10356.45
240.689	10367.15
240.761	10383.34
240.833	10452.34
240.904	10443.86
240.976	10449.59
241.048	10465.15
241.119	10509.34
241.191	10551.16
241.262	10619.84
241.334	10625.14
241.405	10633.43
241.477	10634.29
241.549	10638.15
241.62	10659.78
241.692	10707.58
241.763	10765.89
241.835	10789.36
241.906	10810.41
241.978	10778.81
242.049	10850.74
242.121	10922.58
242.192	10984.5
242.264	10953.91
242.335	10903.17
242.407	10956.75
242.478	10960.56
242.55	10982.29
242.621	10963.54
242.693	10962.1
242.764	10952.22
242.836	10951.97
242.907	10982.09
242.979	11010.19
243.05	11030.76
243.122	11066.72
243.193	11064.45
243.264	10991.2
243.336	10994.96
243.407	11026.34
243.479	11113.32
243.55	11127.58
243.622	11139.78
243.693	11142.81
243.764	11203.48
243.836	11181.95
243.907	11161.56
243.978	11170.96
244.05	11193.95
244.121	11146.14
244.192	11187.93
244.264	11135.15
244.335	11148.79
244.407	11100.75
244.478	11115.11
244.549	11107.2
244.62	11059.45
244.692	11060.31
244.763	11112.31
244.834	11099.29
244.906	11076.59
244.977	11097.18
245.048	11146.34
245.119	11121.81
245.191	11091.59
245.262	11039.65
245.333	11117.46
245.405	11140.31
245.476	11168.21
245.547	11195.88
245.618	11253.03
245.689	11260.21
245.761	11297.17
245.832	11304.93
245.903	11348.93
245.974	11375.73
246.045	11391.53
246.117	11468.45
246.188	11452.65
246.259	11432.89
246.33	11442.86
246.401	11463.1
246.473	11418.28
246.544	11402.61
246.615	11458.14
246.686	11462.76
246.757	11536.21
246.828	11518.61
246.899	11585.09
246.97	11557.67
247.042	11536.51
247.113	11576.85
247.184	11667.09
247.255	11663.09
247.326	11689.11
247.397	11695.96
247.468	11704.83
247.539	11717.7
247.61	11676.58
247.681	11724.77
247.752	11776.54
247.823	11762.08
247.894	11769.36
247.965	11745.65
248.037	11734.42
248.108	11684.53
248.179	11695.81
248.25	11686.36
248.321	11708.24
248.392	11663.99
248.463	11746.16
248.534	11749.92
248.605	11766.7
248.675	11746.4
248.746	11764.24
248.817	11785.01
248.888	11807.81
248.959	11759.28
249.03	11781.64
249.101	11796.82
249.172	11778.22
249.243	11709.02
249.314	11771.53
249.385	11778.23
249.456	11809.46
249.527	11807
249.598	11829.26
249.669	11825.12
249.739	11834.86
249.81	11852.35
249.881	11810.23
249.952	11798.32
250.023	11796.06
250.094	11741.83
250.165	11706.25
250.235	11702.78
250.306	11704.04
250.377	11666.64
250.448	11693.09
250.519	11631.06
250.59	11687.99
250.66	11688.62
250.731	11766.55
250.802	11760.71
250.873	11783.18
250.944	11801.01
251.014	11796.24
251.085	11886.09
251.156	11920.74
251.227	11967.21
251.297	12019.9
251.368	12070.65
251.439	12108.93
251.51	12157.56
251.58	12149.85
251.651	12144.16
251.722	12194.29
251.792	12140.89
251.863	12141.18
251.934	12200.22
252.005	12304.1
252.075	12307.28
252.146	12353.84
252.217	12391.97
252.287	12440.65
252.358	12443.88
252.429	12524.48
252.499	12512.48
252.57	12524.63
252.641	12569.02
252.711	12577.07
252.782	12527.42
252.852	12607.78
252.923	12608.8
252.994	12624.27
253.064	12672.13
253.135	12654.73
253.205	12638.78
253.276	12713.97
253.347	12783.57
253.417	12760.39
253.488	12750.36
253.558	12743.51
253.629	12744.48
253.699	12754.75
253.77	12769.74
253.841	12764.92
253.911	12768.87
253.982	12793.94
254.052	12829.37
254.123	12835.1
254.193	12841.03
254.264	12983.09
254.334	12950.12
254.405	12914.45
254.475	12882.97
254.546	12886.39
254.616	12945.01
254.687	12977.36
254.757	13000.78
254.827	13001.46
254.898	13028.26
254.968	13027.63
255.039	13009.32
255.109	13040.41
255.18	13020.6
255.25	12950.94
255.321	12980.49
255.391	12939.71
255.461	13013.03
255.532	12927.22
255.602	12925.15
255.673	12870.15
255.743	12829.75
255.813	12756.19
255.884	12808.83
255.954	12846.77
256.024	12909.49
256.095	12908.91
256.165	12872.32
256.235	12900.38
256.306	12882.64
256.376	12925.97
256.446	12972.59
256.517	13004.89
256.587	13049.67
256.657	13070.45
256.728	13102.41
256.798	13114.6
256.868	13110.36
256.938	13082.79
257.009	13127.47
257.079	13153.07
257.149	13253.48
257.219	13194.19
257.29	13226.53
257.36	13168.88
257.43	13205.71
257.5	13143.47
257.571	13142.17
257.641	13174.08
257.711	13141.3
257.781	13173.26
257.852	13189.41
257.922	13126.36
257.992	13134.12
258.062	13129.49
258.132	13171.72
258.202	13175.68
258.273	13190.62
258.343	13266.16
258.413	13256.76
258.483	13254.3
258.553	13221.37
258.623	13188.16
258.693	13215.98
258.764	13287.37
258.834	13352.54
258.904	13364.16
258.974	13354.81
259.044	13365.61
259.114	13398.97
259.184	13416.51
259.254	13427.79
259.324	13376.31
259.394	13419.5
259.464	13490.6
259.535	13499.76
259.605	13482.41
259.675	13475.32
259.745	13508.1
259.815	13484.15
259.885	13481.3
259.955	13598.48
260.025	13592.89
260.095	13608.75
260.165	13638.35
260.235	13696.92
260.305	13684.97
260.375	13659.27
260.445	13746.52
260.515	13804.95
260.585	13847.42
260.655	13852.38
260.725	13901.89
260.795	13938.48
260.865	14008.09
260.934	13977.67
261.004	14001.87
261.074	14013.54
261.144	14075.68
261.214	14107.2
261.284	14106.33
261.354	14144.22
261.424	14097.86
261.494	14171.56
261.564	14176.34
261.634	14208.3
261.703	14141.58
261.773	14169.06
261.843	14201.5
261.913	14198.17
261.983	14142.16
262.053	14169.78
262.123	14172.14
262.192	14121.96
262.262	14163.75
262.332	14117.47
262.402	14146.06
262.472	14159.94
262.541	14106.92
262.611	14149.39
262.681	14123.6
262.751	14164.62
262.821	14181.83
262.89	14148.57
262.96	14180.38
263.03	14262.47
263.1	14278.77
263.169	14306.53
263.239	14335.65
263.309	14405.5
263.379	14439.14
263.448	14466.81
263.518	14483.35
263.588	14495.83
263.657	14572.05
263.727	14610.32
263.797	14626.18
263.867	14628.64
263.936	14593.45
264.006	14651.68
264.076	14647.87
264.145	14652.02
264.215	14635.05
264.285	14666.48
264.354	14628.45
264.424	14602.37
264.494	14552.09
264.563	14543.61
264.633	14617.12
264.702	14639.48
264.772	14574.56
264.842	14569.88
264.911	14601.94
264.981	14560.53
265.05	14579.09
265.12	14572.77
265.19	14581.79
265.259	14624.45
265.329	14663.2
265.398	14682.39
265.468	14774.31
265.537	14769.44
265.607	14799.09
265.676	14851.2
265.746	14876.94
265.815	14936.57
265.885	14951.27
265.955	14935.17
266.024	14937.78
266.094	14874.87
266.163	14941.29
266.232	15008.58
266.302	15023.19
266.371	15052.11
266.441	15071.15
266.51	15120.32
266.58	15126.97
266.649	15106.68
266.719	15160.47
266.788	15184.71
266.858	15261.4
266.927	15195.32
266.996	15223.85
267.066	15252.73
267.135	15222.21
267.205	15265.74
267.274	15280.63
267.343	15340.94
267.413	15368.12
267.482	15421.29
267.552	15489.74
267.621	15437.92
267.69	15392.85
267.76	15415.03
267.829	15429.34
267.898	15448.19
267.968	15418.98
268.037	15456.96
268.106	15508.39
268.176	15477.01
268.245	15480
268.314	15469.93
268.384	15529.55
268.453	15546.33
268.522	15579.44
268.592	15644.8
268.661	15627.11
268.73	15672.86
268.799	15656.28
268.869	15729.4
268.938	15690.21
269.007	15680.09
269.076	15704.38
269.146	15770.85
269.215	15803
269.284	15872.69
269.353	15871.49
269.422	15886.43
269.492	15882.62
269.561	15810.51
269.63	15851.53
269.699	15856.3
269.768	15876.6
269.838	15900.89
269.907	15938.82
269.976	15901.85
270.045	15846.95
270.114	15886.81
270.183	15881.56
270.253	15910.77
270.322	15867.72
270.391	15888.26
270.46	15945.95
270.529	15995.21
270.598	16028.13
270.667	16036.08
270.736	16014.73
270.806	16062.64
270.875	16124.28
270.944	16143.81
271.013	16270.28
271.082	16281.41
271.151	16316.4
271.22	16280.06
271.289	16290.57
271.358	16308.4
271.427	16347.92
271.496	16376.94
271.565	16375.2
271.634	16398.24
271.703	16525.62
271.772	16592.47
271.841	16613.58
271.91	16594.2
271.979	16612.47
272.048	16581.72
272.117	16629.29
272.186	16634.54
272.255	16685.24
272.324	16727.46
272.393	16751.85
272.462	16740.04
272.531	16770.41
272.6	16781.78
272.669	16862.03
272.738	16880.34
272.807	16907.33
272.876	16895.57
272.945	17035.19
273.013	17089.26
273.082	17158.52
273.151	17067.68
273.22	17108.88
273.289	17135.78
273.358	17219.3
273.427	17228.69
273.496	17287.73
273.564	17326.38
273.633	17385.9
273.702	17365.76
273.771	17384.41
273.84	17418.29
273.909	17461.56
273.977	17501.61
274.046	17512.94
274.115	17565.56
274.184	17555.44
274.253	17576.79
274.322	17664.79
274.39	17606.34
274.459	17608.84
274.528	17561.18
274.597	17583.54
274.665	17600.99
274.734	17673.09
274.803	17679.69
274.872	17700.36
274.94	17698.1
275.009	17828.26
275.078	17819.87
275.147	17854.38
275.215	17876.31
275.284	17945.12
275.353	17947.63
275.421	17918.09
275.49	18011
275.559	18021.8
275.627	18052.69
275.696	18070.42
275.765	18102.08
275.833	18119.38
275.902	18158.13
275.971	18244.92
276.039	18330.61
276.108	18383.66
276.177	18416.63
276.245	18423.56
276.314	18457.64
276.383	18520.14
276.451	18445.63
276.52	18500.76
276.588	18587.46
276.657	18646.68
276.725	18658.01
276.794	18713.86
276.863	18791.5
276.931	18762.2
277	18824.7
277.068	18897.18
277.137	18996.79
277.205	19034.04
277.274	19142.9
277.342	19221.21
277.411	19198.13
277.48	19204.1
277.548	19215.71
277.617	19259.57
277.685	19286.94
277.754	19348.38
277.822	19369.44
277.89	19449.05
277.959	19470.06
278.027	19452.04
278.096	19461.87
278.164	19594.5
278.233	19612.91
278.301	19626.31
278.37	19689.1
278.438	19689.63
278.507	19744.71
278.575	19702.49
278.643	19728.23
278.712	19708.85
278.78	19699.79
278.849	19783.98
278.917	19864.85
278.985	19898.39
279.054	19949.47
279.122	20037.62
279.191	20058.82
279.259	20083.88
279.327	20062.72
279.396	20165.61
279.464	20197.85
279.532	20259.83
279.601	20285.62
279.669	20311.74
279.737	20400.27
279.806	20455.98
279.874	20523.79
279.942	20554.97
280.011	20590.58
280.079	20662.97
280.147	20765.86
280.215	20829.05
280.284	20858.2
280.352	20853.53
280.42	20923.03
280.488	20932.04
280.557	20942.98
280.625	21010.26
280.693	21073.1
280.761	21124.29
280.83	21107.61
280.898	21192.39
280.966	21174.27
281.034	21118.64
281.102	21123.8
281.171	21141.2
281.239	21215.39
281.307	21242.96
281.375	21259.68
281.443	21389.72
281.512	21420.62
281.58	21471.82
281.648	21465.89
281.716	21514.66
281.784	21553.13
281.852	21577.37
281.92	21616.85
281.989	21693.83
282.057	21679.37
282.125	21845.14
282.193	21884.9
282.261	21930.94
282.329	21957.45
282.397	22023.43
282.465	22078.58
282.533	22172.23
282.601	22187.31
282.67	22149.04
282.738	22167.31
282.806	22246.12
282.874	22246.65
282.942	22301.13
283.01	22335.32
283.078	22404.44
283.146	22431.29
283.214	22509.97
283.282	22552.73
283.35	22637.35
283.418	22670.81
283.486	22735.89
283.554	22655.93
283.622	22700.33
283.69	22748.45
283.758	22777.95
283.826	22836.63
283.894	22904.9
283.962	23012.92
284.03	23092.72
284.098	23150.81
284.165	23175.83
284.233	23217.01
284.301	23244.98
284.369	23270.78
284.437	23290.46
284.505	23324.74
284.573	23429.62
284.641	23447.37
284.709	23531.91
284.777	23524.87
284.845	23590.71
284.912	23649.59
284.98	23701.14
285.048	23735.29
285.116	23791.04
285.184	23888.51
285.252	23934.52
285.319	23934.47
285.387	23950.78
285.455	23954.21
285.523	24026.75
285.591	24072.36
285.659	24124.6
285.726	24209.74
285.794	24202.51
285.862	24240.08
285.93	24278.38
285.997	24297.09
286.065	24322.32
286.133	24336.84
286.201	24374.17
286.269	24378.13
286.336	24391.44
286.404	24426.56
286.472	24500.47
286.539	24482.63
286.607	24464.78
286.675	24517.95
286.743	24585.09
286.81	24609.42
286.878	24693.26
286.946	24708.13
287.013	24761.67
287.081	24790.52
287.149	24786.9
287.216	24893.09
287.284	24916.54
287.352	24968.99
287.419	25010.29
287.487	25100.24
287.555	25156.23
287.622	25207.95
287.69	25267.51
287.758	25360.59
287.825	25392.73
287.893	25394.95
287.96	25467.41
288.028	25554.67
288.096	25609.32
288.163	25674.72
288.231	25682.64
288.298	25730.33
288.366	25820.65
288.433	25857.61
288.501	25892.94
288.569	25942.9
288.636	25967.76
288.704	26061.99
288.771	26128.66
288.839	26141.4
288.906	26162.17
288.974	26231.08
289.041	26257
289.109	26268.83
289.176	26342.63
289.244	26412.15
289.311	26500.75
289.379	26575.34
289.446	26637.17
289.514	26673.29
289.581	26714.39
289.649	26778.8
289.716	26818.59
289.783	26845.06
289.851	26951.2
289.918	26994.32
289.986	27078.6
290.053	27136.13
290.121	27169.41
290.188	27230.71
290.255	27378.88
290.323	27419.89
290.39	27450.82
290.458	27535.52
290.525	27624.26
290.592	27649.1
290.66	27699
290.727	27736.11
290.794	27838.51
290.862	27871.23
290.929	27935.06
290.996	27983.19
291.064	28050.54
291.131	28137.88
291.198	28220.34
291.266	28255.66
291.333	28308.51
291.4	28376.58
291.468	28484.63
291.535	28528.32
291.602	28585.31
291.669	28596.24
291.737	28666.13
291.804	28709.25
291.871	28810.29
291.938	28885.38
292.006	29032.73
292.073	29110.76
292.14	29182.03
292.207	29184.54
292.275	29239.23
292.342	29308.87
292.409	29428.04
292.476	29557.78
292.543	29592.37
292.611	29638.61
292.678	29754.12
292.745	29891.86
292.812	29966.71
292.879	29994.05
292.946	30051.02
293.014	30143.82
293.081	30219.68
293.148	30299.79
293.215	30398.16
293.282	30405.7
293.349	30480.23
293.416	30443.93
293.484	30523.48
293.551	30605.9
293.618	30705.72
293.685	30824.4
293.752	30843.03
293.819	30871.74
293.886	30867.38
293.953	30921.15
294.02	30995.45
294.087	31043.77
294.154	31056.36
294.221	31146.05
294.288	31202.35
294.356	31311.71
294.423	31365.46
294.49	31377.95
294.557	31465.64
294.624	31481.96
294.691	31607.5
294.758	31646.97
294.825	31726.28
294.892	31766.72
294.959	31812.78
295.026	31891.39
295.093	31925.3
295.16	31985.47
295.226	32044.37
295.293	32173.92
295.36	32254.36
295.427	32338.18
295.494	32421.81
295.561	32513.7
295.628	32625.94
295.695	32727.35
295.762	32773.58
295.829	32859.41
295.896	32974.61
295.963	33054.43
296.03	33139.22
296.096	33210.66
296.163	33305.65
296.23	33404.19
296.297	33485.65
296.364	33537.3
296.431	33600.27
296.498	33632.55
296.564	33770.67
296.631	33833.39
296.698	33836.15
296.765	33946.4
296.832	33967.2
296.899	33988.77
296.965	34085.84
297.032	34087.79
297.099	34201.82
297.166	34292.35
297.233	34315.09
297.299	34346.46
297.366	34399.81
297.433	34472.74
297.5	34558.69
297.566	34611.07
297.633	34668.45
297.7	34735.19
297.767	34786.73
297.833	34868.71
297.9	34944.5
297.967	34939.21
298.033	35033.94
298.1	35194.97
298.167	35209.57
298.234	35291.69
298.3	35374.73
298.367	35409.81
298.434	35471.1
298.5	35481.78
298.567	35499.1
298.634	35564.64
298.7	35669.62
298.767	35723.38
298.834	35808.93
298.9	35829.99
298.967	35850.81
299.033	35909.09
299.1	36011.11
299.167	36098.78
299.233	36127.99
299.3	36214.32
299.366	36321.6
299.433	36416.41
299.5	36374.18
299.566	36439.15
299.633	36532.35
299.699	36624.24
299.766	36676.13
299.832	36738.17
299.899	36811.43
299.965	36917.68
300.032	36954.08
300.099	37021.61
300.165	37097.15
300.232	37135.45
300.298	37189.34
300.365	37290.84
300.431	37356.43
300.498	37388.34
300.564	37455.57
300.631	37543.21
300.697	37634.02
300.763	37666.84
300.83	37702.1
300.896	37790.31
300.963	37881.02
301.029	37938.52
301.096	37987.52
301.162	38060.7
301.229	38089.06
301.295	38114.56
301.361	38162.59
301.428	38223.37
301.494	38222.94
301.561	38271.31
301.627	38328.76
301.693	38390.73
301.76	38442.99
301.826	38477.04
301.892	38555.53
301.959	38647
302.025	38681.14
302.092	38705.97
302.158	38797.86
302.224	38855.96
302.291	38876.16
302.357	38905.41
302.423	38944.27
302.49	38953.79
302.556	39035.31
302.622	39090.35
302.688	39161.03
302.755	39260.73
302.821	39335.14
302.887	39420.39
302.954	39464.31
303.02	39538.74
303.086	39599.85
303.152	39644.75
303.219	39684.73
303.285	39743.09
303.351	39793.67
303.417	39846.2
303.483	39870.58
303.55	39885.79
303.616	39927.97
303.682	39981.75
303.748	40011.77
303.815	40104.5
303.881	40186.81
303.947	40197.5
304.013	40251.34
304.079	40269.37
304.145	40235.59
304.212	40271.45
304.278	40293.95
304.344	40323.2
304.41	40313.05
304.476	40327.67
304.542	40351.48
304.608	40420.83
304.674	40413.54
304.741	40438.52
304.807	40495.63
304.873	40565.56
304.939	40662.95
305.005	40650.32
305.071	40687.15
305.137	40747.8
305.203	40705.9
305.269	40749.65
305.335	40825.47
305.401	40860.13
305.467	40895.46
305.533	40980.32
305.599	41061.39
305.666	41132.45
305.732	41194.47
305.798	41283.56
305.864	41406.79
305.93	41478.2
305.996	41514.95
306.062	41565.74
306.128	41606.72
306.194	41612.8
306.259	41638.03
306.325	41647.36
306.391	41733.88
306.457	41802.42
306.523	41836.69
306.589	41963.92
306.655	41989.06
306.721	41968.1
306.787	41960.33
306.853	42051.09
306.919	42037.77
306.985	42050.95
307.051	42075.55
307.117	42091.06
307.183	42117.17
307.248	42063
307.314	42125.58
307.38	42170.51
307.446	42224.67
307.512	42233.52
307.578	42284.08
307.644	42313.64
307.709	42359.54
307.775	42384.2
307.841	42418.23
307.907	42463.11
307.973	42431.5
308.039	42455.52
308.104	42518.38
308.17	42587.95
308.236	42595.25
308.302	42647.22
308.368	42649.6
308.433	42689.67
308.499	42704.84
308.565	42717
308.631	42776.46
308.696	42724.34
308.762	42728.52
308.828	42747
308.894	42733.53
308.959	42714.23
309.025	42739.46
309.091	42766.21
309.156	42778.71
309.222	42832.55
309.288	42836.73
309.354	42813.78
309.419	42851.18
309.485	42853.13
309.551	42894.71
309.616	42884.2
309.682	42914.02
309.748	42945.19
309.813	42960.89
309.879	42970.57
309.945	42966.49
310.01	42966.78
310.076	43023.77
310.141	43044
310.207	43039.77
310.273	43081.78
310.338	43124.62
310.404	43112.07
310.469	43107.7
310.535	43119.86
310.601	43067.77
310.666	43116.89
310.732	43177.53
310.797	43178.36
310.863	43181.66
310.928	43188.38
310.994	43232.69
311.059	43252.77
311.125	43268.63
311.191	43344.67
311.256	43376.33
311.322	43437.32
311.387	43421.51
311.453	44334.18
311.518	44350.96
311.584	44387.68
311.649	44438.12
311.715	44444.49
311.78	44473.57
311.846	44490.69
311.911	44547.61
311.976	44601.11
312.042	44584.38
312.107	44585.16
312.173	44599.75
312.238	44622.95
312.304	44653.6
312.369	44664.98
312.434	44670.82
312.5	44684.44
312.565	44612.05
312.631	44634.47
312.696	44629.94
312.761	44681.21
312.827	43810.28
312.892	43918.7
312.958	43944.59
313.023	43969.06
313.088	44006.12
313.154	44009.92
313.219	44019.89
313.284	44015.22
313.35	44021.45
313.415	44031.32
313.48	44048.25
313.546	44079.58
313.611	44130.03
313.676	44132.8
313.741	44125.31
313.807	44177.91
313.872	44214.54
313.937	44278.85
314.003	44354.86
314.068	44403.17
314.133	44449.15
314.198	44441.66
314.264	44384.56
314.329	44383.78
314.394	44407.19
314.459	44432.39
314.525	44521.43
314.59	44541.71
314.655	44539.09
314.72	44611.45
314.785	44646.91
314.851	44663.94
314.916	44644.19
314.981	44630.47
315.046	44632.17
315.111	44639.03
315.176	44634.21
315.242	44688.23
315.307	44697.33
315.372	44659.85
315.437	44644.43
315.502	44652.75
315.567	44730.57
315.632	44734.8
315.698	44775.39
315.763	44779.18
315.828	44789.6
315.893	44794.03
315.958	44801.81
316.023	44784.88
316.088	44726.58
316.153	44677.98
316.218	44675.55
316.283	44631.09
316.348	44596.11
316.413	44596.11
316.479	44552.48
316.544	44442.74
316.609	44329.77
316.674	44212.1
316.739	44101.98
316.804	44005.82
316.869	43881.59
316.934	43735.92
316.999	43611.69
317.064	43417.53
317.129	43273.16
317.194	43120.59
317.259	42936.11
317.324	42728.83
317.389	42567.69
317.454	42421.03
317.518	42280.57
317.583	42162.5
317.648	42053.98
317.713	41898.56
317.778	41676.41
317.843	41550.65
317.908	41390.99
317.973	41215.18
318.038	41087.69
318.103	40909.05
318.168	40747.94
318.233	40593.29
318.297	40381.18
318.362	40206.38
318.427	40028.47
318.492	39881.51
318.557	39674.02
318.622	39533.84
318.687	39416.62
318.751	39222
318.816	39042.2
318.881	38869.53
318.946	38613.63
319.011	38398.76
319.075	38199.69
319.14	38003.87
319.205	37781.69
319.27	37603.76
319.335	37399.36
319.399	37187.14
319.464	37025.2
319.529	36782.37
319.594	36583.24
319.658	36404.31
319.723	36188.1
319.788	36014.78
319.853	35746.03
319.917	35549.27
319.982	35285.08
320.047	35065.36
320.112	34890.27
320.176	34632.99
320.241	34425.94
320.306	34230.43
320.37	34006.54
320.435	33804.36
320.5	33622.08
320.564	33396.99
320.629	33155.48
320.694	32949.34
320.758	32714.67
320.823	32471.46
320.888	32291.22
320.952	32024.72
321.017	31792.58
321.082	31560.59
321.146	31343.07
321.211	31137.51
321.275	30907.33
321.34	30668.13
321.405	30424.27
321.469	30172.07
321.534	29947.44
321.598	29686.51
321.663	29491.14
321.727	29291.81
321.792	29037.5
321.857	28794.83
321.921	28568.09
321.986	28340.97
322.05	28055.97
322.115	27837.24
322.179	27596.02
322.244	27308.26
322.308	27094.66
322.373	26838.69
322.437	26601.05
322.502	26413.17
322.566	26162.38
322.631	25951.17
322.695	25715.59
322.76	25471.82
322.824	25253
322.889	25007.89
322.953	24759.1
323.018	24442.32
323.082	24126.63
323.146	23844.92
323.211	23554.65
323.275	23302.07
323.34	23036.53
323.404	22812.82
323.468	22543.27
323.533	22290.06
323.597	22029.47
323.662	21745.32
323.726	21513.75
323.79	21242.55
323.855	20906.09
323.919	20636.41
323.983	20369.04
324.048	19980.43
324.112	20103.43
324.177	19293.69
324.241	18237.56
324.305	17196.01
324.37	16174.55
324.434	15180.05
324.498	14907.51
324.562	14604.41
324.627	14248.18
324.691	13907.31
324.755	13517.51
324.82	13078.5
324.884	12608.58
324.948	12135.88
325.012	11570.14
325.077	10867.05
