Data from 20250701_urea_2M_exp3_MAYP1162681_09-29-51-713.txt Node
Date: Wed Jul 02 09:29:51 BST 2025
User: adleo
Spectrometer: MAYP116268
Trigger mode: 0
Integration Time (sec): 4.000000E0
Scans to average: 1
Electric dark correction enabled: true
Nonlinearity correction enabled: true
Boxcar width: 10
XAxis mode: Wavelengths
Number of Pixels in Spectrum: 2068
>>>>>Begin Spectral Data<<<<<
179.565	3837.74
179.642	4039.47
179.718	4198.62
179.795	4342.8
179.871	4460.37
179.948	4526.86
180.024	4602.06
180.101	4684.01
180.177	4738.08
180.254	4818.64
180.33	4898.73
180.407	5176.69
180.483	5471.64
180.56	5774.67
180.636	6050.97
180.712	6008.43
180.789	6044.95
180.865	6087.3
180.942	6120.4
181.018	6157.54
181.095	6209.98
181.171	6231.19
181.248	6232.92
181.324	6291.94
181.4	6315.08
181.477	6351.76
181.553	6399.31
181.63	6470.08
181.706	6534.15
181.782	6559.29
181.859	6559.82
181.935	6578.36
182.011	6570.58
182.088	6632.38
182.164	6702.35
182.24	6751.45
182.317	6780.44
182.393	6773.96
182.469	6817.33
182.546	6863.05
182.622	6878.61
182.698	6855.27
182.775	6902.97
182.851	6952.54
182.927	6920.69
183.003	6904.75
183.08	6886.16
183.156	6915.27
183.232	6904.74
183.308	6854.16
183.385	6889.31
183.461	6950.04
183.537	6951.43
183.613	6993.57
183.69	6956.81
183.766	6917.59
183.842	6946.04
183.918	6967.7
183.995	7012.57
184.071	7026.46
184.147	7009.45
184.223	6971.09
184.299	7021.79
184.375	6973.6
184.452	6997.06
184.528	7131.31
184.604	7172.62
184.68	7210.71
184.756	7234.79
184.832	7251.47
184.908	7270.87
184.985	7264.24
185.061	7206.97
185.137	7242.15
185.213	7201.26
185.289	7214.47
185.365	7186.52
185.441	7175.46
185.517	7219.07
185.593	7206.14
185.669	7200.76
185.745	7239.83
185.822	7297.22
185.898	7268.48
185.974	7303.3
186.05	7274.41
186.126	7191.01
186.202	7163.33
186.278	7152.52
186.354	7122.72
186.43	7143.49
186.506	7142.15
186.582	7142.82
186.658	7163.42
186.734	7090.65
186.81	7100.11
186.886	7106.11
186.962	7152.71
187.038	7138.54
187.114	7116.56
187.19	7146.7
187.266	7112.25
187.341	7110.91
187.417	7083.57
187.493	7081.36
187.569	7094.19
187.645	7071.75
187.721	7034.6
187.797	7059.63
187.873	7076.4
187.949	7057.43
188.025	7034.4
188.101	7041.89
188.176	7057.75
188.252	7050.54
188.328	7080.31
188.404	7077.42
188.48	7059.46
188.556	7033.32
188.632	7040.48
188.707	7043.51
188.783	7030.67
188.859	7011.42
188.935	6967.93
189.011	6995.07
189.086	6978.16
189.162	6943.28
189.238	6943.38
189.314	6931.56
189.39	6914.17
189.465	6888.17
189.541	6940.69
189.617	6889.01
189.693	6872.06
189.768	6889.02
189.844	6968.68
189.92	6939.02
189.996	6971.02
190.071	7012.34
190.147	7009.45
190.223	7038.05
190.298	7003.35
190.374	6963.33
190.45	7010.2
190.526	7043.98
190.601	7028.12
190.677	7031.58
190.753	7129.91
190.828	7135.77
190.904	7194.31
190.98	7248.2
191.055	7284.29
191.131	7253.09
191.207	7327.42
191.282	7357.59
191.358	7320.54
191.433	7270.24
191.509	7315.04
191.585	7304.61
191.66	7307.54
191.736	7333.73
191.811	7303.11
191.887	7367.15
191.963	7440.45
192.038	7459.1
192.114	7461.89
192.189	7479.24
192.265	7466.08
192.34	7391.67
192.416	7390.66
192.491	7371.43
192.567	7376.09
192.642	7380.13
192.718	7383.02
192.793	7341.05
192.869	7331.54
192.944	7338.94
193.02	7365.33
193.095	7381.96
193.171	7404.99
193.246	7404.89
193.322	7398.45
193.397	7398.26
193.473	7342.38
193.548	7283.01
193.624	7298.54
193.699	7295.18
193.775	7347.65
193.85	7352.35
193.925	7378.51
194.001	7376.68
194.076	7351.78
194.152	7316.73
194.227	7296.44
194.302	7261.91
194.378	7273.3
194.453	7253.75
194.529	7301.87
194.604	7250.39
194.679	7225.79
194.755	7159.01
194.83	7199.99
194.905	7190.23
194.981	7219.65
195.056	7198.37
195.131	7223.21
195.207	7220.37
195.282	7183.47
195.357	7111.78
195.433	7164.54
195.508	7130.18
195.583	7154.06
195.659	7203
195.734	7225.45
195.809	7221.41
195.884	7256.52
195.96	7262.1
196.035	7322.26
196.11	7300.58
196.185	7343.78
196.261	7356.76
196.336	7463.22
196.411	7414.6
196.486	7439.49
196.561	7420.75
196.637	7451.25
196.712	7502.76
196.787	7508.82
196.862	7561.16
196.937	7603.99
197.013	7621.35
197.088	7653.65
197.163	7727.87
197.238	7782.83
197.313	7786.73
197.388	7837.03
197.464	7939.25
197.539	7974.16
197.614	7950.8
197.689	7999.86
197.764	8059.47
197.839	8132.58
197.914	8110.78
197.989	8189.87
198.065	8229.31
198.14	8401.06
198.215	8498.63
198.29	8534.88
198.365	8578.23
198.44	8620.32
198.515	8713.7
198.59	8771.21
198.665	8861.16
198.74	8891.21
198.815	8903.29
198.89	8979.24
198.965	9077.41
199.04	9069.56
199.115	9125.25
199.19	9277.2
199.265	9281.63
199.34	9308.69
199.415	9419.62
199.49	9493.45
199.565	9524.51
199.64	9611.23
199.715	9598.8
199.79	9615.07
199.865	9641.22
199.94	9637.95
200.015	9746.08
200.09	9763.8
200.165	9781.09
200.24	9801.51
200.315	9935.57
200.39	9983.11
200.464	10004.11
200.539	10010.37
200.614	10061.95
200.689	10137.48
200.764	10151.79
200.839	10213.47
200.914	10230.47
200.989	10198.53
201.063	10245.16
201.138	10184.31
201.213	10185.51
201.288	10126.51
201.363	10142.5
201.438	10141.29
201.512	10194.26
201.587	10133.03
201.662	10147.24
201.737	10190.35
201.812	10222.78
201.886	10109.58
201.961	10140.32
202.036	10098.48
202.111	10087.97
202.186	9982.11
202.26	9926.71
202.335	9854.59
202.41	9837.79
202.485	9782.56
202.559	9710.56
202.634	9620.4
202.709	9653.04
202.784	9581.38
202.858	9577.48
202.933	9519.26
203.008	9495.52
203.082	9427.88
203.157	9420.55
203.232	9270.82
203.306	9191.59
203.381	9080.3
203.456	9004.81
203.53	8923.92
203.605	8854.93
203.68	8773.07
203.754	8754.7
203.829	8698.91
203.904	8626.05
203.978	8581.08
204.053	8596.25
204.127	8557.32
204.202	8559.48
204.277	8495.44
204.351	8474.03
204.426	8443.07
204.5	8406.12
204.575	8282.8
204.65	8321.94
204.724	8294.83
204.799	8318.49
204.873	8309.39
204.948	8300.63
205.022	8256.63
205.097	8226.34
205.171	8267.9
205.246	8295.34
205.32	8289.95
205.395	8293.32
205.469	8266.83
205.544	8286.13
205.618	8219.21
205.693	8257.17
205.767	8204.54
205.842	8282.98
205.916	8265.76
205.991	8235.36
206.065	8258.59
206.14	8318.67
206.214	8298.11
206.289	8273.66
206.363	8321.97
206.438	8333.86
206.512	8356.48
206.586	8421.56
206.661	8451.55
206.735	8385.87
206.81	8389.82
206.884	8446.58
206.958	8400.16
207.033	8456.33
207.107	8478.86
207.181	8591.15
207.256	8570.55
207.33	8636.47
207.405	8679.43
207.479	8742.09
207.553	8770.04
207.628	8712.04
207.702	8753.8
207.776	8726.42
207.851	8740.04
207.925	8788.24
207.999	8771.39
208.073	8769.23
208.148	8785.11
208.222	8746.75
208.296	8854.65
208.371	8911
208.445	8946.72
208.519	9049.08
208.593	9089.9
208.668	9078.59
208.742	9089.57
208.816	9093.66
208.89	9146.97
208.965	9132.86
209.039	9158.91
209.113	9215.48
209.187	9290.57
209.261	9273.77
209.336	9349.98
209.41	9424.24
209.484	9424
209.558	9508.9
209.632	9555.26
209.707	9589.93
209.781	9666.21
209.855	9720.49
209.929	9774.03
210.003	9788.57
210.077	9783.13
210.151	9949.52
210.226	10063.99
210.3	10160.86
210.374	10243.53
210.448	10256.2
210.522	10293.35
210.596	10334.78
210.67	10363.25
210.744	10526.77
210.818	10645.15
210.892	10715.73
210.966	10691.02
211.041	10746.57
211.115	10727.25
211.189	10804.87
211.263	10854.83
211.337	10874.92
211.411	10926.44
211.485	10910.97
211.559	10956.01
211.633	10964.01
211.707	10854.7
211.781	10888.44
211.855	10756.07
211.929	10725.29
212.003	10655.89
212.077	10688.47
212.151	10718.44
212.225	10753.43
212.299	10712.99
212.373	10665.91
212.447	10647.99
212.52	10745.71
212.594	10753.9
212.668	10793.6
212.742	10744.79
212.816	10721.85
212.89	10697.09
212.964	10682.05
213.038	10689.62
213.112	10722.48
213.186	10770.27
213.26	10687.92
213.333	10516.36
213.407	10530.81
213.481	10531.29
213.555	10565.48
213.629	10515.75
213.703	10448.44
213.777	10431.33
213.85	10352.31
213.924	10454.66
213.998	10441.65
214.072	10406.61
214.146	10343.11
214.219	10320.32
214.293	10299.66
214.367	10291.42
214.441	10311.89
214.515	10258.65
214.588	10158.06
214.662	10031.76
214.736	9948.91
214.81	9964.32
214.883	9979.14
214.957	9926.33
215.031	9869.95
215.105	9771.11
215.178	9708.21
215.252	9672.57
215.326	9566.09
215.4	9478.2
215.473	9294.82
215.547	9206.54
215.621	9132.73
215.694	9126.13
215.768	9023.53
215.842	8948.77
215.915	8879.9
215.989	8764.35
216.063	8703.14
216.136	8685.38
216.21	8653.91
216.284	8656.7
216.357	8627.34
216.431	8583.26
216.504	8578.54
216.578	8629.95
216.652	8649.19
216.725	8622.43
216.799	8628.54
216.873	8613.19
216.946	8619.83
217.02	8584
217.093	8547.43
217.167	8449.56
217.24	8362.78
217.314	8323.2
217.387	8276.99
217.461	8224.89
217.535	8246.1
217.608	8182.89
217.682	8148.77
217.755	8159.74
217.829	8100.22
217.902	8084.05
217.976	8064.24
218.049	8018.59
218.123	7943.6
218.196	7934.18
218.27	7892.85
218.343	7819.14
218.417	7815.09
218.49	7794.56
218.563	7834.81
218.637	7844.15
218.71	7916.94
218.784	7951.57
218.857	7986.58
218.931	8005.42
219.004	8021.3
219.077	8044.83
219.151	8063.39
219.224	8055.94
219.298	8051.37
219.371	8104.83
219.444	8062.95
219.518	8071.6
219.591	8084.83
219.665	8192.52
219.738	8211.42
219.811	8197.43
219.885	8245.49
219.958	8280.18
220.031	8281.48
220.105	8302.17
220.178	8310.07
220.251	8287.2
220.325	8308.96
220.398	8330.76
220.471	8354.37
220.544	8390.84
220.618	8359.8
220.691	8391.17
220.764	8411.28
220.838	8445.49
220.911	8426.24
220.984	8514.7
221.057	8553.15
221.131	8580.66
221.204	8483.17
221.277	8554.51
221.35	8681.9
221.424	8674.15
221.497	8686.43
221.57	8713.22
221.643	8747.79
221.716	8796.41
221.79	8795.35
221.863	8805.22
221.936	8814.84
222.009	8830.67
222.082	8862.4
222.155	8875.11
222.229	8939.38
222.302	8968.65
222.375	8968.12
222.448	9009.18
222.521	9012.79
222.594	9018.66
222.667	8991.1
222.74	9045.68
222.814	9039.9
222.887	9017.4
222.96	9073.2
223.033	9112.26
223.106	9141.81
223.179	9174.46
223.252	9184.34
223.325	9219.04
223.398	9236.71
223.471	9261.75
223.544	9284.9
223.617	9301.08
223.69	9324.52
223.763	9282.63
223.837	9304.39
223.91	9336.84
223.983	9283.8
224.056	9254.15
224.129	9272.82
224.202	9332.45
224.275	9321.42
224.348	9289.36
224.42	9256.04
224.493	9195.95
224.566	9171.01
224.639	9188.48
224.712	9154.86
224.785	9147.54
224.858	9131.9
224.931	9108.21
225.004	9068.54
225.077	9067.82
225.15	8965.02
225.223	8965.4
225.296	9053.4
225.369	9001.03
225.442	8965.35
225.514	8983.74
225.587	9004.19
225.66	9013.25
225.733	9009.87
225.806	9017.29
225.879	9007.86
225.952	8978.4
226.025	9026.88
226.097	9080.39
226.17	9074.04
226.243	9003.1
226.316	8991.49
226.389	9003
226.461	9025.82
226.534	9046.71
226.607	9033.62
226.68	9122.5
226.753	9118.55
226.825	9031.66
226.898	9088.36
226.971	9096.5
227.044	9117.1
227.117	9125.34
227.189	9142.09
227.262	9185.15
227.335	9205.76
227.407	9200.8
227.48	9229.82
227.553	9241.47
227.626	9221.1
227.698	9223.26
227.771	9267.15
227.844	9248.27
227.916	9263.97
227.989	9228.97
228.062	9228.49
228.134	9317.43
228.207	9315.89
228.28	9302.89
228.352	9310.5
228.425	9315.46
228.498	9358.03
228.57	9331.75
228.643	9385.93
228.716	9386.12
228.788	9366.47
228.861	9361.75
228.934	9427.28
229.006	9437.97
229.079	9437.35
229.151	9423.42
229.224	9386.94
229.296	9408.03
229.369	9514.96
229.442	9565.54
229.514	9543.4
229.587	9584.62
229.659	9509.49
229.732	9521.67
229.804	9560.57
229.877	9644.34
229.949	9675.32
230.022	9729.09
230.094	9737.85
230.167	9727.1
230.239	9683.91
230.312	9665.95
230.384	9741.06
230.457	9734.17
230.529	9746.83
230.602	9749.53
230.674	9757.24
230.747	9802.97
230.819	9840.25
230.892	9717.48
230.964	9719.45
231.037	9753.05
231.109	9746.35
231.181	9789.93
231.254	9756.95
231.326	9741.78
231.399	9715.23
231.471	9683.24
231.544	9604.14
231.616	9650.22
231.688	9658.7
231.761	9647.34
231.833	9641.18
231.905	9544.79
231.978	9544.79
232.05	9535.01
232.122	9540.16
232.195	9512.42
232.267	9545.27
232.339	9519.36
232.412	9582.96
232.484	9556.17
232.556	9532.3
232.629	9608.13
232.701	9625.33
232.773	9634.19
232.846	9631.83
232.918	9638.77
232.99	9659.14
233.062	9702.78
233.135	9715.54
233.207	9678.55
233.279	9727.9
233.351	9763.2
233.424	9770.32
233.496	9748.7
233.568	9824.76
233.64	9785.66
233.713	9814.31
233.785	9812.63
233.857	9832.42
233.929	9783.79
234.001	9850.28
234.074	9910.8
234.146	9831.41
234.218	9826.11
234.29	9827.41
234.362	9813.35
234.434	9761.71
234.507	9725.11
234.579	9668.37
234.651	9649.64
234.723	9684.17
234.795	9696.94
234.867	9690.72
234.939	9756.95
235.012	9775.88
235.084	9787.59
235.156	9823.66
235.228	9794.71
235.3	9782.48
235.372	9790.14
235.444	9848.84
235.516	9764.72
235.588	9770.93
235.66	9791.88
235.732	9760.77
235.804	9964.71
235.876	10008.91
235.948	10081.32
236.02	10099.67
236.092	10114.88
236.164	10128.9
236.236	10124.37
236.308	10124.9
236.38	10159.83
236.452	10137.23
236.524	10157.32
236.596	10216.31
236.668	10252.83
236.74	10283.17
236.812	10308.36
236.884	10346.52
236.956	10363.91
237.028	10356.4
237.1	10340.89
237.172	10412.11
237.244	10493.04
237.316	10373.02
237.388	10355.44
237.46	10325.33
237.532	10386.8
237.604	10382.47
237.675	10450.65
237.747	10499.74
237.819	10484.52
237.891	10488.23
237.963	10468.48
238.035	10461.36
238.107	10346.38
238.178	10406.14
238.25	10410.23
238.322	10515.78
238.394	10465.09
238.466	10465.57
238.538	10521.11
238.609	10566.83
238.681	10508.96
238.753	10485.15
238.825	10507.32
238.897	10542.39
238.968	10634.39
239.04	10619.36
239.112	10730.31
239.184	10695.18
239.255	10690.8
239.327	10727.21
239.399	10748.8
239.471	10806.08
239.542	10847.86
239.614	10921.09
239.686	10837.49
239.758	10901.33
239.829	10849.66
239.901	10922.13
239.973	10940.63
240.044	10966.36
240.116	10977.45
240.188	10993.83
240.259	11015.37
240.331	11006.21
240.403	11048.32
240.474	10996.37
240.546	10985.38
240.618	10927.7
240.689	10932.23
240.761	10953.53
240.833	11028.61
240.904	11023.98
240.976	11026.2
241.048	11037.62
241.119	11071.94
241.191	11129.66
241.262	11194.54
241.334	11201.1
241.405	11205.58
241.477	11202.06
241.549	11211.46
241.62	11236.33
241.692	11279.94
241.763	11340.72
241.835	11356.91
241.906	11366.07
241.978	11334.84
242.049	11403.81
242.121	11468.96
242.192	11533.25
242.264	11497.3
242.335	11441.44
242.407	11492.1
242.478	11492.82
242.55	11517.78
242.621	11510.46
242.693	11504.05
242.764	11489.54
242.836	11498.7
242.907	11531.28
242.979	11567.47
243.05	11586.46
243.122	11613.93
243.193	11612.44
243.264	11535.95
243.336	11544.44
243.407	11589.26
243.479	11677.75
243.55	11692.5
243.622	11706.19
243.693	11698.67
243.764	11772.84
243.836	11751.5
243.907	11739.11
243.978	11749.04
244.05	11777.28
244.121	11721.52
244.192	11767.07
244.264	11715.49
244.335	11723.83
244.407	11670.67
244.478	11688.17
244.549	11683.3
244.62	11641.51
244.692	11643.01
244.763	11691.78
244.834	11680.16
244.906	11647.34
244.977	11665.12
245.048	11718.87
245.119	11696.89
245.191	11676.26
245.262	11609.56
245.333	11694.62
245.405	11712.21
245.476	11741.28
245.547	11755.93
245.618	11809.62
245.689	11820.51
245.761	11859.07
245.832	11867.22
245.903	11912.47
245.974	11941.4
246.045	11953.3
246.117	12032.16
246.188	12014.47
246.259	12000.11
246.33	12013.41
246.401	12035
246.473	12001.07
246.544	11984.77
246.615	12044.88
246.686	12054.67
246.757	12129.95
246.828	12109.66
246.899	12182.74
246.97	12147.17
247.042	12133.77
247.113	12178.36
247.184	12263.49
247.255	12261.32
247.326	12292.84
247.397	12303.74
247.468	12309.72
247.539	12322.01
247.61	12277.18
247.681	12327.83
247.752	12386.35
247.823	12359.26
247.894	12371.65
247.965	12336.32
248.037	12331.5
248.108	12272.5
248.179	12283.54
248.25	12273.75
248.321	12300.99
248.392	12252.25
248.463	12342.63
248.534	12335.45
248.605	12365.33
248.675	12344.07
248.746	12364.71
248.817	12374.15
248.888	12401.34
248.959	12353.96
249.03	12381.72
249.101	12389.15
249.172	12378.45
249.243	12301.37
249.314	12375.51
249.385	12387.13
249.456	12425.35
249.527	12414.55
249.598	12444.48
249.669	12438.84
249.739	12454.75
249.81	12466.9
249.881	12423.95
249.952	12417.73
250.023	12421.25
250.094	12366.1
250.165	12332.16
250.235	12319.29
250.306	12322.57
250.377	12278.03
250.448	12299.58
250.519	12239.81
250.59	12306.72
250.66	12300.26
250.731	12370.58
250.802	12364.89
250.873	12375.35
250.944	12396.42
251.014	12381.86
251.085	12477.02
251.156	12508.4
251.227	12561.81
251.297	12616.91
251.368	12673.02
251.439	12711.78
251.51	12765.19
251.58	12751.02
251.651	12751.55
251.722	12821.11
251.792	12770.25
251.863	12779.02
251.934	12845.21
252.005	12958.54
252.075	12966.4
252.146	13010.6
252.217	13062.85
252.287	13108.12
252.358	13117.52
252.429	13199.52
252.499	13201.83
252.57	13203.52
252.641	13251.53
252.711	13256.79
252.782	13200.72
252.852	13280.99
252.923	13280.94
252.994	13293.13
253.064	13342.64
253.135	13323.6
253.205	13293.37
253.276	13373.15
253.347	13437.46
253.417	13409.64
253.488	13388.43
253.558	13371.95
253.629	13377.34
253.699	13389.11
253.77	13408.39
253.841	13407.14
253.911	13411.14
253.982	13425.26
254.052	13467.49
254.123	13477.18
254.193	13477.42
254.264	13624.3
254.334	13582.7
254.405	13550.11
254.475	13519.79
254.546	13527.98
254.616	13589.64
254.687	13620.3
254.757	13645.41
254.827	13644.59
254.898	13673.28
254.968	13681.86
255.039	13672.46
255.109	13703.6
255.18	13672.6
255.25	13609.89
255.321	13643.44
255.391	13601.59
255.461	13692.8
255.532	13600.87
255.602	13591.57
255.673	13540.81
255.743	13508.03
255.813	13439.96
255.884	13489.86
255.954	13527.6
256.024	13596.87
256.095	13603.72
256.165	13568.19
256.235	13586.9
256.306	13572.39
256.376	13615.24
256.446	13658.58
256.517	13692.32
256.587	13739.52
256.657	13763.33
256.728	13790.95
256.798	13795.24
256.868	13790.42
256.938	13750.17
257.009	13799.39
257.079	13831.78
257.149	13930.27
257.219	13863.99
257.29	13900.91
257.36	13837.57
257.43	13881.39
257.5	13804.64
257.571	13787.87
257.641	13833.23
257.711	13794.04
257.781	13828.89
257.852	13847.84
257.922	13778.76
257.992	13777.21
258.062	13775.62
258.132	13815.59
258.202	13808.11
258.273	13824.89
258.343	13903.85
258.413	13899.46
258.483	13907.27
258.553	13873.14
258.623	13844.99
258.693	13878.06
258.764	13952.01
258.834	14025.38
258.904	14048.03
258.974	14038.97
259.044	14052.08
259.114	14080.09
259.184	14114.61
259.254	14119.52
259.324	14069.1
259.394	14120.87
259.464	14204.85
259.535	14208.32
259.605	14205.91
259.675	14206.29
259.745	14246.64
259.815	14214.97
259.885	14213.86
259.955	14321.69
260.025	14314.84
260.095	14330.56
260.165	14355.82
260.235	14410.96
260.305	14398.43
260.375	14354.22
260.445	14451.84
260.515	14520.63
260.585	14562.56
260.655	14566.76
260.725	14608.6
260.795	14637.48
260.865	14701.88
260.934	14668.62
261.004	14703.76
261.074	14705.2
261.144	14770.86
261.214	14804.65
261.284	14808.41
261.354	14846.39
261.424	14803.4
261.494	14879.62
261.564	14883.52
261.634	14912.06
261.703	14847.75
261.773	14873.25
261.843	14911.72
261.913	14900.83
261.983	14838.64
262.053	14861.11
262.123	14863.76
262.192	14825.19
262.262	14875.52
262.332	14836.71
262.402	14861.59
262.472	14859.9
262.541	14799.64
262.611	14839.7
262.681	14811.98
262.751	14853.92
262.821	14858.45
262.89	14825.87
262.96	14845.25
263.03	14929.93
263.1	14957.12
263.169	14974.57
263.239	15014.19
263.309	15084.85
263.379	15122.84
263.448	15146.89
263.518	15167.62
263.588	15182.42
263.657	15264.22
263.727	15290.92
263.797	15302.2
263.867	15305.43
263.936	15272.27
264.006	15335.37
264.076	15326.16
264.145	15321.44
264.215	15300.08
264.285	15344
264.354	15300.76
264.424	15292.23
264.494	15238.63
264.563	15230.39
264.633	15319.32
264.702	15333.63
264.772	15272.9
264.842	15264.32
264.911	15295.03
264.981	15254.73
265.05	15271.75
265.12	15258.06
265.19	15276.95
265.259	15321.2
265.329	15352.19
265.398	15381.6
265.468	15485.76
265.537	15486.96
265.607	15527.07
265.676	15583.41
265.746	15604.72
265.815	15663.77
265.885	15669.5
265.955	15649.69
266.024	15638.85
266.094	15570.45
266.163	15631.28
266.232	15700.3
266.302	15709.02
266.371	15737.03
266.441	15758.67
266.51	15805.71
266.58	15813.28
266.649	15795.79
266.719	15845.57
266.788	15883.02
266.858	15958.74
266.927	15886.16
266.996	15919.27
267.066	15947.08
267.135	15911.85
267.205	15958.45
267.274	15979.61
267.343	16041.02
267.413	16065.51
267.482	16138.91
267.552	16201.52
267.621	16151.59
267.69	16104.26
267.76	16134.05
267.829	16157.57
267.898	16177.38
267.968	16147.49
268.037	16192.42
268.106	16244.66
268.176	16216.32
268.245	16215.21
268.314	16204.85
268.384	16270.16
268.453	16284.81
268.522	16311.85
268.592	16376.53
268.661	16358.56
268.73	16388.34
268.799	16366.36
268.869	16449.36
268.938	16395.52
269.007	16383.52
269.076	16412.68
269.146	16477.46
269.215	16507.97
269.284	16582.62
269.353	16578.52
269.422	16595.35
269.492	16582.48
269.561	16504.69
269.63	16537.56
269.699	16533.27
269.768	16555
269.838	16576.69
269.907	16624.98
269.976	16588.59
270.045	16536.49
270.114	16573.17
270.183	16584.59
270.253	16625.9
270.322	16568.93
270.391	16595.53
270.46	16667.97
270.529	16720.36
270.598	16757.95
270.667	16766.24
270.736	16735.44
270.806	16771.11
270.875	16828.94
270.944	16842.77
271.013	16966.78
271.082	16997.14
271.151	17038.16
271.22	17000.18
271.289	16998.06
271.358	17006.49
271.427	17048.9
271.496	17077.44
271.565	17077.97
271.634	17098.5
271.703	17230.49
271.772	17302.93
271.841	17319.7
271.91	17289.49
271.979	17301.1
272.048	17263.8
272.117	17306.45
272.186	17312.33
272.255	17366.26
272.324	17418.26
272.393	17455.13
272.462	17455.03
272.531	17468.57
272.6	17485.78
272.669	17558.41
272.738	17584.48
272.807	17611.61
272.876	17600.77
272.945	17749.39
273.013	17804.33
273.082	17872.09
273.151	17770.36
273.22	17812.67
273.289	17840.48
273.358	17921.49
273.427	17938.69
273.496	18000.81
273.564	18033.58
273.633	18086.78
273.702	18068.9
273.771	18073.63
273.84	18113.19
273.909	18143.89
273.977	18187.5
274.046	18199.89
274.115	18261.52
274.184	18259.5
274.253	18275.88
274.322	18353.76
274.39	18290.73
274.459	18295.16
274.528	18246.3
274.597	18269.62
274.665	18289.28
274.734	18356.32
274.803	18366.58
274.872	18387.83
274.94	18373.13
275.009	18618.47
275.078	18617.56
275.147	18661.46
275.215	18697.02
275.284	18757.07
275.353	18772.25
275.421	18742.37
275.49	18842.85
275.559	18851.67
275.627	18875.33
275.696	18897.01
275.765	18936.63
275.833	18954.26
275.902	18989.15
275.971	19073.24
276.039	19167.75
276.108	19230.1
276.177	19261.52
276.245	19266.97
276.314	19295.83
276.383	19369.13
276.451	19187.07
276.52	19240.6
276.588	19316.22
276.657	19370.91
276.725	19373.56
276.794	19418.43
276.863	19504.54
276.931	19458.38
277	19523.34
277.068	19594.56
277.137	19709.26
277.205	19753.69
277.274	19856.43
277.342	19943.08
277.411	19927.13
277.48	19923.57
277.548	19927.42
277.617	19981.88
277.685	20011.03
277.754	20074.84
277.822	20092.72
277.89	20185.06
277.959	20211.66
278.027	20199.8
278.096	20199.23
278.164	20342.37
278.233	20356.97
278.301	20361.31
278.37	20431.19
278.438	20428.73
278.507	20480.87
278.575	20432.87
278.643	20453.64
278.712	20430.7
278.78	20416.29
278.849	20493.45
278.917	20572
278.985	20602.61
279.054	20654.32
279.122	20742.9
279.191	20778.86
279.259	20812.5
279.327	20781.89
279.396	20873.85
279.464	20899.01
279.532	20976.02
279.601	20997.91
279.669	21041.92
279.737	21135.66
279.806	21195.33
279.874	21272.35
279.942	21302.23
280.011	21331.15
280.079	21399.69
280.147	21503.7
280.215	21569.15
280.284	21603.81
280.352	21608
280.42	21674.23
280.488	21688.98
280.557	21695.68
280.625	21747.2
280.693	21797.47
280.761	21860.09
280.83	21847.36
280.898	21938.08
280.966	21932.15
281.034	21858.44
281.102	21861.04
281.171	21872.42
281.239	21941.8
281.307	21946.76
281.375	21965.56
281.443	22098.9
281.512	22134.15
281.58	22202.13
281.648	22184.87
281.716	22219.92
281.784	22263.98
281.852	22282.78
281.92	22317.1
281.989	22402
282.057	22385.13
282.125	22566.18
282.193	22594.09
282.261	22638.88
282.329	22669.3
282.397	22708.92
282.465	22774.15
282.533	22870.23
282.601	22881.41
282.67	22844.81
282.738	22868.58
282.806	22945.38
282.874	22936.89
282.942	22985.02
283.01	23006.34
283.078	23082.41
283.146	23124.02
283.214	23197.99
283.282	23254.12
283.35	23346.14
283.418	23377.24
283.486	23447.59
283.554	23350.24
283.622	23397.74
283.69	23435.73
283.758	23466.79
283.826	23531.55
283.894	23613.34
283.962	23718.07
284.03	23810.71
284.098	23863.95
284.165	23900.93
284.233	23949.35
284.301	23979.4
284.369	23997.92
284.437	24009.88
284.505	24040.46
284.573	24140.88
284.641	24150.67
284.709	24230.85
284.777	24215.51
284.845	24271.91
284.912	24328.97
284.98	24389.56
285.048	24416.86
285.116	24489.21
285.184	24581.61
285.252	24633.13
285.319	24628.55
285.387	24638.29
285.455	24636.12
285.523	24708.63
285.591	24748.42
285.659	24799.66
285.726	24879.13
285.794	24881.25
285.862	24931.77
285.93	24978.56
285.997	25004.53
286.065	25038.01
286.133	25049.74
286.201	25104.84
286.269	25116.42
286.336	25133.55
286.404	25171.62
286.472	25247.73
286.539	25221.05
286.607	25201.74
286.675	25248.56
286.743	25322.34
286.81	25344.4
286.878	25435.52
286.946	25447.29
287.013	25498.77
287.081	25543.09
287.149	25543.04
287.216	25653.17
287.284	25681.36
287.352	25726.77
287.419	25760.76
287.487	25851.51
287.555	25912.44
287.622	25937.2
287.69	25997.21
287.758	26088.11
287.825	26117.85
287.893	26130.31
287.96	26197.67
288.028	26284.76
288.096	26332.91
288.163	26385.15
288.231	26391.43
288.298	26436.92
288.366	26544.66
288.433	26569.56
288.501	26582.41
288.569	26642.56
288.636	26672.99
288.704	26759.44
288.771	26836.66
288.839	26848.68
288.906	26875.73
288.974	26941.34
289.041	26976.45
289.109	26989.53
289.176	27052.2
289.244	27109.13
289.311	27200.29
289.379	27279.39
289.446	27340.47
289.514	27385.44
289.581	27428.15
289.649	27489.53
289.716	27536.65
289.783	27545.15
289.851	27664.75
289.918	27716.05
289.986	27787.9
290.053	27842.64
290.121	27880.82
290.188	27933.06
290.255	28076.4
290.323	28099.21
290.39	28128.84
290.458	28206.48
290.525	28299.9
290.592	28331.08
290.66	28391.29
290.727	28419.91
290.794	28520.79
290.862	28549.32
290.929	28625.36
290.996	28669.93
291.064	28755.49
291.131	28843.55
291.198	28937.59
291.266	28987.73
291.333	29034.32
291.4	29103.91
291.468	29212.3
291.535	29254.8
291.602	29313.7
291.669	29333.39
291.737	29397.49
291.804	29446.73
291.871	29552.16
291.938	29619.01
292.006	29753.92
292.073	29823.27
292.14	29895.64
292.207	29913.83
292.275	29978.93
292.342	30048.76
292.409	30186.71
292.476	30303.2
292.543	30312.64
292.611	30353.33
292.678	30437.29
292.745	30569.03
292.812	30640.71
292.879	30662.11
292.946	30701.54
293.014	30782.17
293.081	30855.55
293.148	30947.1
293.215	31043.04
293.282	31058.72
293.349	31137.35
293.416	31113.87
293.484	31209.43
293.551	31305.39
293.618	31407.4
293.685	31543.04
293.752	31549.73
293.819	31582.23
293.886	31588.62
293.953	31657.12
294.02	31741.58
294.087	31813.21
294.154	31843.72
294.221	31941
294.288	32001.68
294.356	32122.11
294.423	32192.4
294.49	32219.72
294.557	32304
294.624	32324.4
294.691	32448.55
294.758	32496.61
294.825	32583.61
294.892	32610.21
294.959	32637.58
295.026	32703.68
295.093	32710.08
295.16	32762.23
295.226	32821.07
295.293	32954.94
295.36	33022.28
295.427	33098.33
295.494	33188.31
295.561	33258.03
295.628	33371.48
295.695	33466.48
295.762	33522.07
295.829	33601.97
295.896	33707.92
295.963	33791.5
296.03	33872.83
296.096	33932.47
296.163	34012.67
296.23	34120.9
296.297	34223.67
296.364	34270.5
296.431	34352.16
296.498	34396.38
296.564	34549.19
296.631	34596.56
296.698	34595.88
296.765	34714.5
296.832	34743.55
296.899	34761.59
296.965	34886.54
297.032	34875.62
297.099	34984.83
297.166	35075.93
297.233	35111.05
297.299	35132.29
297.366	35185.08
297.433	35250.8
297.5	35344.35
297.566	35403.3
297.633	35435.52
297.7	35486.31
297.767	35552.42
297.833	35610.79
297.9	35671.52
297.967	35651.63
298.033	35746.35
298.1	35907.67
298.167	35932.18
298.234	36003.5
298.3	36081.68
298.367	36103.57
298.434	36188.07
298.5	36206.61
298.567	36226.71
298.634	36274.99
298.7	36395.05
298.767	36446.74
298.834	36534.54
298.9	36543.62
298.967	36560.6
299.033	36646
299.1	36757.6
299.167	36850.5
299.233	36885.26
299.3	36995.83
299.366	37113.42
299.433	37209.23
299.5	37163.24
299.566	37222.61
299.633	37324.18
299.699	37409.4
299.766	37453.09
299.832	37507.58
299.899	37586.68
299.965	37667.66
300.032	37716.55
300.099	37781.43
300.165	37853.87
300.232	37889.18
300.298	37956.18
300.365	38060.14
300.431	38106.08
300.498	38118.32
300.564	38190.49
300.631	38278.44
300.697	38364.8
300.763	38416.37
300.83	38463.79
300.896	38555.77
300.963	38633.67
301.029	38693.47
301.096	38754.82
301.162	38850.21
301.229	38876.05
301.295	38884.46
301.361	38954.69
301.428	39011.81
301.494	39018.46
301.561	39081.18
301.627	39154.57
301.693	39205.53
301.76	39283.21
301.826	39314.84
301.892	39408.26
301.959	39477.83
302.025	39523.84
302.092	39545.37
302.158	39612.75
302.224	39663.58
302.291	39681.6
302.357	39729.31
302.423	39758.66
302.49	39781.45
302.556	39863.82
302.622	39922.46
302.688	40019.35
302.755	40115.14
302.821	40200.16
302.887	40277.8
302.954	40320.9
303.02	40393.21
303.086	40469.75
303.152	40487.1
303.219	40535.54
303.285	40594.4
303.351	40658.9
303.417	40706.57
303.483	40735.53
303.55	40764.45
303.616	40806.35
303.682	40858.29
303.748	40875.15
303.815	40961.09
303.881	41028.01
303.947	41031.17
304.013	41082.21
304.079	41095.43
304.145	41067.53
304.212	41105.29
304.278	41114.67
304.344	41137.17
304.41	41126.58
304.476	41131.63
304.542	41166.53
304.608	41231.42
304.674	41223.35
304.741	41246.29
304.807	41298.84
304.873	41359.46
304.939	41452.45
305.005	41433.64
305.071	41464.84
305.137	41525.06
305.203	41484.28
305.269	41515.93
305.335	41598.73
305.401	41626.97
305.467	41652.83
305.533	41740.97
305.599	41813.36
305.666	41891.92
305.732	41940.29
305.798	42038.88
305.864	42166.13
305.93	42222.67
305.996	42258.79
306.062	42314.7
306.128	42340.28
306.194	42349.91
306.259	42378.4
306.325	42384.58
306.391	42480.11
306.457	42559.31
306.523	42600.2
306.589	42748.32
306.655	42774.1
306.721	42750.56
306.787	42761.01
306.853	42861.58
306.919	42845.53
306.985	42854.58
307.051	42884.72
307.117	42915.65
307.183	42926.88
307.248	42866.43
307.314	42936.27
307.38	42980.82
307.446	43029.06
307.512	43048.08
307.578	43097.19
307.644	43121.41
307.709	43166.35
307.775	43184.1
307.841	43203.36
307.907	43249.51
307.973	43209.62
308.039	43249.16
308.104	43304.41
308.17	43338.35
308.236	43329.3
308.302	43381.19
308.368	43386.16
308.433	43425.89
308.499	43454.78
308.565	43463.78
308.631	43528.56
308.696	43489.36
308.762	43489.89
308.828	43524.29
308.894	43511.54
308.959	43481.97
309.025	43499.53
309.091	43526.87
309.156	43540.01
309.222	43597.07
309.288	43601.93
309.354	43570.27
309.419	43598.68
309.485	43594.35
309.551	43659.34
309.616	43660.21
309.682	43674.27
309.748	43712.26
309.813	43721.84
309.879	43723.54
309.945	43725.1
310.01	43749.52
310.076	43789.41
310.141	43811.44
310.207	43793.93
310.273	43837.51
310.338	43891.83
310.404	43874.08
310.469	43872.91
310.535	43886.34
310.601	43850.39
310.666	43904.05
310.732	43986.7
310.797	43979.69
310.863	43992.29
310.928	43999.98
310.994	44035.78
311.059	44071.93
311.125	44090.18
311.191	44169.3
311.256	44175.97
311.322	44233.52
311.387	44198.98
311.453	45080.03
311.518	45109.66
311.584	45145.37
311.649	45189.89
311.715	45196.85
311.78	45247.53
311.846	45252.64
311.911	45303.59
311.976	45350.29
312.042	45334.04
312.107	45309.33
312.173	45326.01
312.238	45343.72
312.304	45364.5
312.369	45382.89
312.434	45377.79
312.5	45380.61
312.565	45313.89
312.631	45371.2
312.696	45372.71
312.761	45419.41
312.827	44566.92
312.892	44667.31
312.958	44690.08
313.023	44725.61
313.088	44767.02
313.154	44765.07
313.219	44781.47
313.284	44769.01
313.35	44785.66
313.415	44780.11
313.48	44805.7
313.546	44861.23
313.611	44921.97
313.676	44934.14
313.741	44930.15
313.807	45000.82
313.872	45037.8
313.937	45093.52
314.003	45155.1
314.068	45194.48
314.133	45243.58
314.198	45252.98
314.264	45213.87
314.329	45223.31
314.394	45254.96
314.459	45266.69
314.525	45357.36
314.59	45368.6
314.655	45381.69
314.72	45429.89
314.785	45480.84
314.851	45489.16
314.916	45455.72
314.981	45431.09
315.046	45437.37
315.111	45433.87
315.176	45433.62
315.242	45477.34
315.307	45512.25
315.372	45476.51
315.437	45474.42
315.502	45479.19
315.567	45546.61
315.632	45531.66
315.698	45570.76
315.763	45567.59
315.828	45571.73
315.893	45580.49
315.958	45600.4
316.023	45604.34
316.088	45559.26
316.153	45512.89
316.218	45505.93
316.283	45463.21
316.348	45417.37
316.413	45413.87
316.479	45381.75
316.544	45248.18
316.609	45152.06
316.674	45013.71
316.739	44892.77
316.804	44779.6
316.869	44649.59
316.934	44521.31
316.999	44399.42
317.064	44198.78
317.129	44034.96
317.194	43889.26
317.259	43694.5
317.324	43495.92
317.389	43303.22
317.454	43148.4
317.518	43001.73
317.583	42888.16
317.648	42768.43
317.713	42619.84
317.778	42378.35
317.843	42232.96
317.908	42067.83
317.973	41906.07
318.038	41761.01
318.103	41607.26
318.168	41458.9
318.233	41313.89
318.297	41091.09
318.362	40911.49
318.427	40732.86
318.492	40596.57
318.557	40381.95
318.622	40234.45
318.687	40078.84
318.751	39888.65
318.816	39697.36
318.881	39533
318.946	39280.45
319.011	39063.5
319.075	38857.45
319.14	38678.2
319.205	38466.76
319.27	38287.19
319.335	38048.17
319.399	37847.56
319.464	37660.13
319.529	37405.45
319.594	37191.6
319.658	37017.57
319.723	36789.42
319.788	36611.68
319.853	36338.93
319.917	36154.06
319.982	35888.51
320.047	35686.8
320.112	35520
320.176	35272.84
320.241	35053.49
320.306	34864.66
320.37	34629.12
320.435	34432.71
320.5	34251.92
320.564	34022.1
320.629	33801.2
320.694	33609.05
320.758	33375.13
320.823	33135.62
320.888	32947.39
320.952	32683.32
321.017	32451.91
321.082	32226.1
321.146	32014.4
321.211	31814.04
321.275	31581.73
321.34	31341.55
321.405	31102.55
321.469	30854
321.534	30634.07
321.598	30361.39
321.663	30157.85
321.727	29968.01
321.792	29708.24
321.857	29454.12
321.921	29226.05
321.986	28975.1
322.05	28686.94
322.115	28466.82
322.179	28217.12
322.244	27924.95
322.308	27712.49
322.373	27453.28
322.437	27213.35
322.502	27019.21
322.566	26761.47
322.631	26536.68
322.695	26310.6
322.76	26060.48
322.824	25822.67
322.889	25564.61
322.953	25313.65
323.018	24983.34
323.082	24652.4
323.146	24378.11
323.211	24089.96
323.275	23834.82
323.34	23576.52
323.404	23350.36
323.468	23079.11
323.533	22832.91
323.597	22584.93
323.662	22298.09
323.726	22063.2
323.79	21802.87
323.855	21466.84
323.919	21181.09
323.983	20913.03
324.048	20511.97
324.112	20669.42
324.177	19854.13
324.241	18774.01
324.305	17712.98
324.37	16675
324.434	15669.35
324.498	15388.07
324.562	15080.69
324.627	14721.28
324.691	14373.58
324.755	13972.93
324.82	13520.15
324.884	13037.88
324.948	12551.1
325.012	11971.54
325.077	11246.6
