Data from 20250701_urea_2M_exp3_MAYP1162681_03-59-49-330.txt Node
Date: Wed Jul 02 03:59:49 BST 2025
User: adleo
Spectrometer: MAYP116268
Trigger mode: 0
Integration Time (sec): 4.000000E0
Scans to average: 1
Electric dark correction enabled: true
Nonlinearity correction enabled: true
Boxcar width: 10
XAxis mode: Wavelengths
Number of Pixels in Spectrum: 2068
>>>>>Begin Spectral Data<<<<<
179.565	3618.03
179.642	3802.12
179.718	3952.39
179.795	4080.76
179.871	4192.55
179.948	4255.52
180.024	4323.68
180.101	4400.21
180.177	4451.31
180.254	4528.31
180.33	4601.48
180.407	4860.61
180.483	5141.04
180.56	5423.42
180.636	5681.57
180.712	5637.42
180.789	5671.57
180.865	5709.57
180.942	5744.37
181.018	5781.06
181.095	5826.56
181.171	5844.6
181.248	5848.1
181.324	5894.32
181.4	5919.6
181.477	5953.67
181.553	5998.26
181.63	6069.81
181.706	6127.51
181.782	6154.02
181.859	6153.73
181.935	6174.08
182.011	6164.58
182.088	6220.02
182.164	6283.94
182.24	6332.67
182.317	6366.79
182.393	6366.79
182.469	6420.59
182.546	6465.29
182.622	6485.01
182.698	6469.69
182.775	6504.84
182.851	6552.6
182.927	6530.76
183.003	6514.63
183.08	6496.11
183.156	6527.6
183.232	6515.5
183.308	6471.81
183.385	6496.48
183.461	6552.8
183.537	6558.66
183.613	6598.61
183.69	6571.86
183.766	6539.19
183.842	6568.87
183.918	6585.05
183.995	6623.42
184.071	6627.41
184.147	6611.84
184.223	6575.95
184.299	6618.56
184.375	6583.04
184.452	6610.67
184.528	6736.1
184.604	6768.4
184.68	6815.12
184.756	6835.63
184.832	6851.2
184.908	6870.78
184.985	6870.35
185.061	6824.43
185.137	6852.83
185.213	6817.63
185.289	6820.84
185.365	6798.04
185.441	6786.7
185.517	6831.01
185.593	6815.98
185.669	6811.99
185.745	6843.94
185.822	6897.89
185.898	6865.12
185.974	6904.01
186.05	6871.62
186.126	6795.86
186.202	6784
186.278	6765.02
186.354	6735.14
186.43	6762.78
186.506	6756.78
186.582	6757.64
186.658	6772.76
186.734	6705.55
186.81	6713.13
186.886	6720.43
186.962	6760.91
187.038	6746.16
187.114	6722.13
187.19	6751.67
187.266	6719.55
187.341	6718.16
187.417	6691.03
187.493	6692.13
187.569	6700.49
187.645	6680.23
187.721	6644.34
187.797	6664.56
187.873	6679.59
187.949	6663.27
188.025	6634.38
188.101	6646.19
188.176	6661.8
188.252	6647.25
188.328	6668.36
188.404	6666.78
188.48	6653.53
188.556	6632.78
188.632	6630.76
188.707	6633.46
188.783	6622.55
188.859	6603.45
188.935	6568
189.011	6601.19
189.086	6579.3
189.162	6545.87
189.238	6539.53
189.314	6526.57
189.39	6502.9
189.465	6477.73
189.541	6527.4
189.617	6480.49
189.693	6456.49
189.768	6467.11
189.844	6556.1
189.92	6529.81
189.996	6560.55
190.071	6593.39
190.147	6590.99
190.223	6622.17
190.298	6591.04
190.374	6547.58
190.45	6593.18
190.526	6624.35
190.601	6599.43
190.677	6604.42
190.753	6697.27
190.828	6707.79
190.904	6764.95
190.98	6821.97
191.055	6863.52
191.131	6836.09
191.207	6903.56
191.282	6941.87
191.358	6909.36
191.433	6854.32
191.509	6899.28
191.585	6892.56
191.66	6899.86
191.736	6922.72
191.811	6893.04
191.887	6949.4
191.963	7027.42
192.038	7043.75
192.114	7040.24
192.189	7053.98
192.265	7044.96
192.34	6968.23
192.416	6967.37
192.491	6950.98
192.567	6957.76
192.642	6958.14
192.718	6958.48
192.793	6915.72
192.869	6902.66
192.944	6912.74
193.02	6939.7
193.095	6957.67
193.171	6973.52
193.246	6969.48
193.322	6962.33
193.397	6963.57
193.473	6916.62
193.548	6855.98
193.624	6872.18
193.699	6866.27
193.775	6919.38
193.85	6921.44
193.925	6952.96
194.001	6947.44
194.076	6920.83
194.152	6886.18
194.227	6858.84
194.302	6828.16
194.378	6844.92
194.453	6831.72
194.529	6875.78
194.604	6827.54
194.679	6808.23
194.755	6743.22
194.83	6791.83
194.905	6784.48
194.981	6817.67
195.056	6794.48
195.131	6813.55
195.207	6808.94
195.282	6781.76
195.357	6715.1
195.433	6765.05
195.508	6729.59
195.583	6761.77
195.659	6810.21
195.734	6832.02
195.809	6834.95
195.884	6865.29
195.96	6862.94
196.035	6914.96
196.11	6896.79
196.185	6933.44
196.261	6940.55
196.336	7045.03
196.411	6995.32
196.486	7011.41
196.561	6991.18
196.637	7029.36
196.712	7086.62
196.787	7092.1
196.862	7145.32
196.937	7182.07
197.013	7205
197.088	7235.51
197.163	7308.02
197.238	7359.11
197.313	7359.88
197.388	7403.52
197.464	7506.48
197.539	7545.16
197.614	7518.64
197.689	7561.28
197.764	7616.68
197.839	7684.8
197.914	7663.74
197.989	7734.04
198.065	7783.51
198.14	7954.38
198.215	8034.74
198.29	8070.06
198.365	8116.43
198.44	8149.32
198.515	8240.73
198.59	8289.18
198.665	8375.28
198.74	8394.97
198.815	8406.18
198.89	8481.09
198.965	8579.71
199.04	8557.28
199.115	8609.14
199.19	8752.41
199.265	8762.99
199.34	8798.27
199.415	8905.07
199.49	8979.35
199.565	9011.56
199.64	9089.58
199.715	9072.82
199.79	9095.93
199.865	9122.93
199.94	9113.74
200.015	9217.55
200.09	9234.16
200.165	9251.01
200.24	9273.45
200.315	9406.22
200.39	9450.23
200.464	9465.59
200.539	9469.49
200.614	9529.19
200.689	9605.08
200.764	9625.65
200.839	9682.11
200.914	9692.12
200.989	9659.94
201.063	9702.66
201.138	9645.2
201.213	9642.55
201.288	9581.25
201.363	9597
201.438	9595.36
201.512	9654.62
201.587	9597.69
201.662	9610.6
201.737	9655.53
201.812	9686.12
201.886	9575.01
201.961	9608.49
202.036	9571.23
202.111	9564.35
202.186	9463.86
202.26	9410.11
202.335	9336.87
202.41	9319.78
202.485	9268.13
202.559	9205.83
202.634	9118.11
202.709	9146.31
202.784	9079.06
202.858	9077.33
202.933	9014.99
203.008	8987.5
203.082	8918.77
203.157	8915.15
203.232	8776.93
203.306	8705.48
203.381	8595.62
203.456	8520.07
203.53	8445.32
203.605	8381.02
203.68	8300.54
203.754	8283.18
203.829	8233.08
203.904	8168.68
203.978	8122.96
204.053	8132.1
204.127	8088.28
204.202	8084.97
204.277	8022.83
204.351	8010.18
204.426	7981.55
204.5	7955.28
204.575	7839.91
204.65	7872.82
204.724	7846.06
204.799	7868.06
204.873	7862.19
204.948	7860.85
205.022	7824.31
205.097	7791.2
205.171	7834.52
205.246	7860.36
205.32	7859.83
205.395	7858.39
205.469	7833.69
205.544	7852.55
205.618	7793.11
205.693	7834.95
205.767	7790.72
205.842	7863.68
205.916	7831.81
205.991	7799.49
206.065	7816.28
206.14	7871.43
206.214	7853.91
206.289	7826.05
206.363	7869
206.438	7860.82
206.512	7880.88
206.586	7942.14
206.661	7971.25
206.735	7900.79
206.81	7906.23
206.884	7954.51
206.958	7912.1
207.033	7969.78
207.107	7994.72
207.181	8107.21
207.256	8079.45
207.33	8141.83
207.405	8181.6
207.479	8250.71
207.553	8282.12
207.628	8224.77
207.702	8257.57
207.776	8235.68
207.851	8248.81
207.925	8301.08
207.999	8293.53
208.073	8289.2
208.148	8296.27
208.222	8259.08
208.296	8360.67
208.371	8414.84
208.445	8444.53
208.519	8535.88
208.593	8572.64
208.668	8559.98
208.742	8561.91
208.816	8572.11
208.89	8622.41
208.965	8620.87
209.039	8649.95
209.113	8705.11
209.187	8773.86
209.261	8763.95
209.336	8831.61
209.41	8897.08
209.484	8893.9
209.558	8972.22
209.632	9016.01
209.707	9057.22
209.781	9129.66
209.855	9185.56
209.929	9240.25
210.003	9261.28
210.077	9262.44
210.151	9419.4
210.226	9531.34
210.3	9620.52
210.374	9700.23
210.448	9711.6
210.522	9746.04
210.596	9781.39
210.67	9812.98
210.744	9976.56
210.818	10089.17
210.892	10160.7
210.966	10141.54
211.041	10195
211.115	10182.53
211.189	10260.9
211.263	10315.86
211.337	10342.98
211.411	10394.96
211.485	10372.55
211.559	10406.41
211.633	10412.24
211.707	10305.07
211.781	10333.6
211.855	10211.43
211.929	10179.07
212.003	10115.57
212.077	10141.15
212.151	10170.69
212.225	10196.13
212.299	10152.32
212.373	10108.05
212.447	10084.25
212.52	10184.35
212.594	10187.48
212.668	10218.07
212.742	10164.64
212.816	10143.06
212.89	10112.91
212.964	10094.98
213.038	10095.95
213.112	10139.07
213.186	10184.1
213.26	10105.1
213.333	9949.18
213.407	9967.38
213.481	9973.98
213.555	10007.19
213.629	9961.61
213.703	9899.33
213.777	9886.9
213.85	9815.17
213.924	9919.05
213.998	9914.81
214.072	9875.58
214.146	9825.44
214.219	9807.04
214.293	9785.51
214.367	9769.86
214.441	9789.8
214.515	9743.27
214.588	9657.69
214.662	9525.98
214.736	9445.19
214.81	9462.99
214.883	9477.28
214.957	9430.11
215.031	9367.99
215.105	9275.86
215.178	9213.56
215.252	9177.12
215.326	9077.22
215.4	8997.05
215.473	8814.15
215.547	8727.72
215.621	8658.71
215.694	8652.01
215.768	8556.57
215.842	8492.57
215.915	8425.47
215.989	8315.2
216.063	8253.48
216.136	8226.73
216.21	8201.81
216.284	8209.71
216.357	8180.45
216.431	8134.61
216.504	8126.38
216.578	8188.84
216.652	8198.84
216.725	8173.48
216.799	8180.12
216.873	8164.83
216.946	8167.81
217.02	8129.12
217.093	8091.41
217.167	7998.91
217.24	7917.31
217.314	7882.55
217.387	7835.6
217.461	7792.79
217.535	7814.24
217.608	7752.02
217.682	7726.73
217.755	7745
217.829	7683.38
217.902	7669.68
217.976	7652.56
218.049	7606.5
218.123	7523.27
218.196	7522.59
218.27	7489.41
218.343	7414.77
218.417	7404.28
218.49	7385.49
218.563	7429.18
218.637	7439.18
218.71	7510.02
218.784	7530.6
218.857	7564.73
218.931	7583.9
219.004	7589.71
219.077	7610.4
219.151	7634.96
219.224	7625.06
219.298	7619.05
219.371	7673.78
219.444	7633.36
219.518	7637.74
219.591	7652.2
219.665	7765.29
219.738	7776.83
219.811	7758.86
219.885	7809.74
219.958	7843.16
220.031	7840.66
220.105	7864.86
220.178	7867.75
220.251	7844.32
220.325	7867.26
220.398	7884.05
220.471	7909.62
220.544	7943.72
220.618	7917.94
220.691	7941.45
220.764	7963.71
220.838	7993.2
220.911	7968.62
220.984	8055.27
221.057	8095.81
221.131	8122.6
221.204	8015.95
221.277	8087.45
221.35	8208.15
221.424	8200.64
221.497	8209.88
221.57	8234.79
221.643	8261.02
221.716	8313.42
221.79	8313.9
221.863	8324.87
221.936	8330.21
222.009	8344.4
222.082	8375.3
222.155	8385.88
222.229	8453.84
222.302	8484.73
222.375	8490.21
222.448	8532.51
222.521	8534.43
222.594	8535.01
222.667	8507.94
222.74	8565.38
222.814	8553.01
222.887	8538.17
222.96	8591.6
223.033	8639.88
223.106	8666.29
223.179	8695.9
223.252	8707.5
223.325	8740.37
223.398	8756.97
223.471	8785.17
223.544	8807.11
223.617	8816.07
223.69	8837.14
223.763	8797.43
223.837	8819.66
223.91	8847.34
223.983	8797.4
224.056	8774.11
224.129	8792.97
224.202	8851.32
224.275	8841.07
224.348	8819.22
224.42	8785.24
224.493	8726.91
224.566	8700.52
224.639	8722.47
224.712	8694.68
224.785	8681.73
224.858	8669.51
224.931	8652.42
225.004	8617.73
225.077	8612.34
225.15	8527.48
225.223	8522.76
225.296	8603.56
225.369	8541.74
225.442	8504.96
225.514	8527.62
225.587	8536.71
225.66	8546.1
225.733	8547.01
225.806	8557.26
225.879	8547.26
225.952	8518.68
226.025	8564.69
226.097	8613.18
226.17	8602.49
226.243	8536.72
226.316	8533.16
226.389	8544.86
226.461	8562.14
226.534	8580.03
226.607	8569.98
226.68	8655.37
226.753	8652.87
226.825	8568.74
226.898	8630.14
226.971	8638.7
227.044	8651.45
227.117	8662.09
227.189	8678.8
227.262	8712.83
227.335	8726.6
227.407	8726.6
227.48	8757.58
227.553	8770.82
227.626	8746.79
227.698	8751.41
227.771	8787.72
227.844	8767.22
227.916	8777.38
227.989	8743.35
228.062	8741.81
228.134	8829.19
228.207	8826.25
228.28	8821.68
228.352	8832.8
228.425	8841.85
228.498	8883.35
228.57	8861.74
228.643	8919.33
228.716	8919.71
228.788	8904.35
228.861	8901.75
228.934	8964.72
229.006	8973.14
229.079	8973.52
229.151	8968.03
229.224	8933.49
229.296	8963.71
229.369	9065.81
229.442	9116.23
229.514	9099.39
229.587	9145.45
229.659	9067.89
229.732	9083.92
229.804	9123.2
229.877	9207.05
229.949	9235.65
230.022	9283.05
230.094	9292.77
230.167	9281.84
230.239	9238.85
230.312	9228.12
230.384	9294.48
230.457	9285.38
230.529	9292.89
230.602	9297.95
230.674	9302.19
230.747	9349.58
230.819	9378.57
230.892	9257.42
230.964	9253.62
231.037	9280.9
231.109	9263.47
231.181	9305.44
231.254	9268.33
231.326	9255.04
231.399	9224.59
231.471	9195.99
231.544	9115.56
231.616	9158.01
231.688	9163.75
231.761	9158.07
231.833	9146.52
231.905	9065.47
231.978	9063.98
232.05	9048.86
232.122	9046.02
232.195	9025.66
232.267	9056.47
232.339	9037.74
232.412	9101.46
232.484	9080.47
232.556	9053.91
232.629	9125.33
232.701	9145.94
232.773	9159.85
232.846	9143.39
232.918	9150.23
232.99	9172.87
233.062	9220.77
233.135	9231.9
233.207	9195.11
233.279	9232.6
233.351	9266.64
233.424	9268.08
233.496	9242.23
233.568	9319.66
233.64	9286.25
233.713	9301.56
233.785	9304.69
233.857	9317.21
233.929	9273.54
234.001	9337.42
234.074	9408.99
234.146	9344.89
234.218	9334.68
234.29	9338.43
234.362	9334.05
234.434	9289.7
234.507	9247.71
234.579	9198.41
234.651	9179.82
234.723	9213.19
234.795	9231.82
234.867	9221.66
234.939	9279.88
235.012	9299.47
235.084	9311.37
235.156	9343.34
235.228	9328.6
235.3	9305.83
235.372	9317.77
235.444	9376.27
235.516	9298.14
235.588	9298.04
235.66	9310.85
235.732	9285.52
235.804	9472.91
235.876	9514.64
235.948	9573.84
236.02	9595.31
236.092	9607.73
236.164	9625.06
236.236	9627.08
236.308	9627.32
236.38	9659.45
236.452	9637
236.524	9657.76
236.596	9714.09
236.668	9752.81
236.74	9772.36
236.812	9807.18
236.884	9835.84
236.956	9842.58
237.028	9833.97
237.1	9820.19
237.172	9891.44
237.244	9967.64
237.316	9848.88
237.388	9834.29
237.46	9816.47
237.532	9870.12
237.604	9860.21
237.675	9930.45
237.747	9968.65
237.819	9957.43
237.891	9962.48
237.963	9956.42
238.035	9951.02
238.107	9844.98
238.178	9906.8
238.25	9916.14
238.322	10007.36
238.394	9954.96
238.466	9957.17
238.538	10002.1
238.609	10043.28
238.681	9987.25
238.753	9966.58
238.825	9994.34
238.897	10024.58
238.968	10103.6
239.04	10090.31
239.112	10205.67
239.184	10160.86
239.255	10160.96
239.327	10198.57
239.399	10218.95
239.471	10270.01
239.542	10307.63
239.614	10373.67
239.686	10289.26
239.758	10343.11
239.829	10300.32
239.901	10375.03
239.973	10393.77
240.044	10425.23
240.116	10439.78
240.188	10453.36
240.259	10471.38
240.331	10451.77
240.403	10489.44
240.474	10435.9
240.546	10427.03
240.618	10364.98
240.689	10371.05
240.761	10385.41
240.833	10446.45
240.904	10443.76
240.976	10442.12
241.048	10459.51
241.119	10499.08
241.191	10546.48
241.262	10606.39
241.334	10615.69
241.405	10624.46
241.477	10616.51
241.549	10624.84
241.62	10649.85
241.692	10698.13
241.763	10759.53
241.835	10787.76
241.906	10799.57
241.978	10776.01
242.049	10846.5
242.121	10912.03
242.192	10971.44
242.264	10939.55
242.335	10893.53
242.407	10935.6
242.478	10942.49
242.55	10958.68
242.621	10938.48
242.693	10940.46
242.764	10930
242.836	10927.98
242.907	10950.67
242.979	10990.86
243.05	11017.12
243.122	11044.88
243.193	11041.08
243.264	10959.93
243.336	10962.34
243.407	11000.55
243.479	11082.52
243.55	11089.75
243.622	11097.75
243.693	11107.39
243.764	11178.46
243.836	11157.27
243.907	11150.86
243.978	11151.1
244.05	11178.43
244.121	11136.99
244.192	11172.12
244.264	11126.33
244.335	11136.65
244.407	11091.73
244.478	11111.49
244.549	11099.73
244.62	11046.29
244.692	11047.35
244.763	11103.01
244.834	11090.91
244.906	11072.45
244.977	11085.75
245.048	11139.4
245.119	11118.58
245.191	11088.17
245.262	11021.14
245.333	11097.95
245.405	11118.91
245.476	11149.27
245.547	11163.3
245.618	11212.79
245.689	11232.26
245.761	11271.49
245.832	11283.39
245.903	11332.83
245.974	11361.46
246.045	11382.19
246.117	11468.02
246.188	11443.69
246.259	11422.43
246.33	11445.61
246.401	11456.89
246.473	11424.5
246.544	11415.15
246.615	11477.86
246.686	11479.59
246.757	11557.27
246.828	11531.73
246.899	11601.77
246.97	11571.12
247.042	11565.53
247.113	11609.92
247.184	11693.51
247.255	11685.03
247.326	11705.22
247.397	11706.62
247.468	11709.75
247.539	11715.49
247.61	11672.59
247.681	11722.13
247.752	11779.58
247.823	11750.66
247.894	11758.91
247.965	11733.89
248.037	11715.67
248.108	11660.2
248.179	11671.62
248.25	11664.87
248.321	11698.94
248.392	11651.46
248.463	11732.52
248.534	11727.66
248.605	11753.54
248.675	11731.08
248.746	11753.25
248.817	11772.82
248.888	11797.59
248.959	11740.29
249.03	11760.49
249.101	11772
249.172	11763.67
249.243	11688.53
249.314	11750.42
249.385	11758.56
249.456	11798.8
249.527	11791.29
249.598	11810.52
249.669	11816.25
249.739	11827.82
249.81	11844.3
249.881	11799.58
249.952	11793.79
250.023	11793.21
250.094	11732.33
250.165	11694.54
250.235	11687.07
250.306	11690.83
250.377	11647.16
250.448	11674.83
250.519	11617.18
250.59	11663.17
250.66	11657.14
250.731	11726.3
250.802	11728.61
250.873	11748.09
250.944	11760.23
251.014	11757.58
251.085	11850.37
251.156	11873.75
251.227	11927.59
251.297	11974.06
251.368	12024.43
251.439	12063.09
251.51	12119.49
251.58	12111.73
251.651	12109.07
251.722	12167.79
251.792	12116.6
251.863	12126.62
251.934	12189.28
252.005	12308.92
252.075	12322.95
252.146	12372.74
252.217	12419.78
252.287	12464.32
252.358	12480.57
252.429	12555.53
252.499	12545.45
252.57	12556.2
252.641	12598.72
252.711	12603.3
252.782	12559.67
252.852	12638.05
252.923	12641.67
252.994	12646.3
253.064	12695.32
253.135	12677.15
253.205	12646.49
253.276	12724.72
253.347	12790.8
253.417	12770.75
253.488	12742.6
253.558	12732.86
253.629	12736.43
253.699	12751.85
253.77	12776.53
253.841	12766.27
253.911	12776.34
253.982	12792.06
254.052	12815.44
254.123	12824.84
254.193	12824.79
254.264	12957.26
254.334	12918.4
254.405	12883.5
254.475	12857.04
254.546	12864.85
254.616	12933.54
254.687	12964.58
254.757	12989.75
254.827	12993.26
254.898	13026.86
254.968	13029.18
255.039	13008.5
255.109	13042.72
255.18	13011.58
255.25	12934.89
255.321	12966.46
255.391	12924.04
255.461	13010.71
255.532	12937.39
255.602	12932.67
255.673	12881.33
255.743	12842.19
255.813	12778.08
255.884	12832.26
255.954	12868.08
256.024	12923.51
256.095	12913.87
256.165	12882.01
256.235	12897.48
256.306	12879.26
256.376	12914.16
256.446	12963.82
256.517	12997.56
256.587	13041.19
256.657	13063.51
256.728	13090.6
256.798	13100.82
256.868	13106.26
256.938	13074.64
257.009	13111.47
257.079	13142.32
257.149	13236.51
257.219	13173.94
257.29	13209.08
257.36	13143.33
257.43	13178.28
257.5	13117.06
257.571	13114.07
257.641	13156.73
257.711	13126.41
257.781	13153.79
257.852	13164.88
257.922	13101.1
257.992	13107.17
258.062	13099.03
258.132	13142.22
258.202	13150.32
258.273	13160.88
258.343	13219.78
258.413	13208.17
258.483	13223.54
258.553	13189.85
258.623	13173.84
258.693	13209.28
258.764	13279.51
258.834	13353.27
258.904	13373.46
258.974	13361.94
259.044	13374.28
259.114	13404.65
259.184	13430.88
259.254	13443.41
259.324	13393.18
259.394	13443.36
259.464	13522.08
259.535	13529.22
259.605	13523.39
259.675	13514.03
259.745	13543.78
259.815	13520.93
259.885	13524.16
259.955	13629.05
260.025	13626.4
260.095	13631.6
260.165	13658.74
260.235	13719.92
260.305	13699.81
260.375	13668.43
260.445	13755.97
260.515	13821.97
260.585	13859.71
260.655	13863.66
260.725	13909.61
260.795	13956.85
260.865	14020.96
260.934	13987.8
261.004	14020.62
261.074	14032.58
261.144	14089.13
261.214	14130.2
261.284	14132.65
261.354	14170.83
261.424	14126.3
261.494	14194.46
261.564	14192.87
261.634	14225.7
261.703	14152.33
261.773	14185.93
261.843	14215.72
261.913	14214.27
261.983	14147.7
262.053	14173.63
262.123	14168.86
262.192	14121.28
262.262	14151.41
262.332	14104.99
262.402	14136.18
262.472	14143.26
262.541	14081.8
262.611	14131.26
262.681	14104.7
262.751	14148.18
262.821	14153.82
262.89	14122.73
262.96	14145.05
263.03	14230.71
263.1	14243.34
263.169	14268.45
263.239	14296.8
263.309	14362.06
263.379	14400.68
263.448	14430.08
263.518	14446.95
263.588	14461.03
263.657	14539.75
263.727	14584.39
263.797	14594.8
263.867	14596.2
263.936	14558.74
264.006	14622.13
264.076	14611.09
264.145	14610.42
264.215	14596.01
264.285	14639.82
264.354	14601.98
264.424	14587.18
264.494	14535.7
264.563	14530.01
264.633	14608.83
264.702	14626.9
264.772	14575.38
264.842	14566.65
264.911	14600.97
264.981	14569.79
265.05	14593.65
265.12	14585.45
265.19	14592.59
265.259	14636.26
265.329	14678.44
265.398	14707.94
265.468	14797.79
265.537	14798.85
265.607	14832.98
265.676	14878.19
265.746	14889.86
265.815	14946.07
265.885	14958.12
265.955	14949.68
266.024	14950.79
266.094	14881.86
266.163	14955.17
266.232	15020.01
266.302	15025.93
266.371	15047.72
266.441	15064.26
266.51	15115.74
266.58	15120.75
266.649	15100.94
266.719	15157.33
266.788	15176.61
266.858	15235.76
266.927	15168.61
266.996	15194.06
267.066	15222.99
267.135	15191.65
267.205	15245.25
267.274	15271.91
267.343	15332.4
267.413	15350.19
267.482	15410.44
267.552	15475.18
267.621	15419.41
267.69	15378.15
267.76	15409.44
267.829	15424.86
267.898	15444.72
267.968	15419.61
268.037	15466.02
268.106	15521.74
268.176	15488.77
268.245	15489.88
268.314	15488.24
268.384	15547
268.453	15572.41
268.522	15596.22
268.592	15662.64
268.661	15643.31
268.73	15670.74
268.799	15654.83
268.869	15731.86
268.938	15687.17
269.007	15678.35
269.076	15702.89
269.146	15756.1
269.215	15784.2
269.284	15870.62
269.353	15865.22
269.422	15874.62
269.492	15865.08
269.561	15786.85
269.63	15819.14
269.699	15821.84
269.768	15842.13
269.838	15861.36
269.907	15894.09
269.976	15868.06
270.045	15814.61
270.114	15846.42
270.183	15845.45
270.253	15880.5
270.322	15832.01
270.391	15861.84
270.46	15936.74
270.529	15982.72
270.598	16018.39
270.667	16024.22
270.736	15994.05
270.806	16036.27
270.875	16099.65
270.944	16109.39
271.013	16232.06
271.082	16261.36
271.151	16297.41
271.22	16265.55
271.289	16281.7
271.358	16298.42
271.427	16334.38
271.496	16360.46
271.565	16366.09
271.634	16396.51
271.703	16520.89
271.772	16584.66
271.841	16599.99
271.91	16569.53
271.979	16590.78
272.048	16566.97
272.117	16608.86
272.186	16610.21
272.255	16656.86
272.324	16689.87
272.393	16725.78
272.462	16719.08
272.531	16737.44
272.6	16755.85
272.669	16823.91
272.738	16834.12
272.807	16865.45
272.876	16860.15
272.945	17008.78
273.013	17067.05
273.082	17137.65
273.151	17050.33
273.22	17092.35
273.289	17116.6
273.358	17194.67
273.427	17203.2
273.496	17259.59
273.564	17299.2
273.633	17347.25
273.702	17333.47
273.771	17351.4
273.84	17385.37
273.909	17422.48
273.977	17461.47
274.046	17475.3
274.115	17533.13
274.184	17531.01
274.253	17544.65
274.322	17617.37
274.39	17550.34
274.459	17543.88
274.528	17485.42
274.597	17506.97
274.665	17530.34
274.734	17600.85
274.803	17611.83
274.872	17638.63
274.94	17638.39
275.009	17869.1
275.078	17867.75
275.147	17901.44
275.215	17924.62
275.284	17993.58
275.353	18009.58
275.421	17982.3
275.49	18080.22
275.559	18093.72
275.627	18135.5
275.696	18158.78
275.765	18193.28
275.833	18206.73
275.902	18255.45
275.971	18343.83
276.039	18426.86
276.108	18484.64
276.177	18527.44
276.245	18537.08
276.314	18567.68
276.383	18626.13
276.451	18454.65
276.52	18515.51
276.588	18599.02
276.657	18658.88
276.725	18666.83
276.794	18710.29
276.863	18788.17
276.931	18751.35
277	18815.64
277.068	18884.26
277.137	18985.8
277.205	19025.51
277.274	19138.76
277.342	19205.84
277.411	19182.8
277.48	19189.16
277.548	19198.03
277.617	19231.76
277.685	19262.46
277.754	19321.15
277.822	19337.97
277.89	19430.69
277.959	19456.43
278.027	19436.72
278.096	19447.27
278.164	19575.56
278.233	19591.61
278.301	19599.03
278.37	19654.78
278.438	19655.8
278.507	19699.99
278.575	19659.8
278.643	19692.23
278.712	19669.53
278.78	19674.88
278.849	19764.95
278.917	19845.67
278.985	19877.81
279.054	19934.05
279.122	20013.23
279.191	20050.05
279.259	20085.04
279.327	20051.69
279.396	20139.97
279.464	20174.96
279.532	20240.26
279.601	20264.31
279.669	20302.19
279.737	20391.64
279.806	20456.46
279.874	20526.87
279.942	20565.09
280.011	20596.31
280.079	20667.69
280.147	20762.92
280.215	20811.84
280.284	20840.95
280.352	20836.17
280.42	20904.9
280.488	20918.88
280.557	20933.43
280.625	20983.65
280.693	21035.08
280.761	21091.9
280.83	21081.92
280.898	21164
280.966	21143.56
281.034	21081.77
281.102	21084.71
281.171	21104.62
281.239	21162.94
281.307	21179.23
281.375	21191.86
281.443	21316.55
281.512	21336.08
281.58	21409.2
281.648	21408.34
281.716	21441.88
281.784	21485.5
281.852	21496.49
281.92	21532.45
281.989	21617.82
282.057	21613.05
282.125	21782.18
282.193	21815.01
282.261	21861.91
282.329	21894.54
282.397	21952.19
282.465	22019.67
282.533	22113.56
282.601	22129.42
282.67	22106.23
282.738	22129.13
282.806	22204.81
282.874	22206.88
282.942	22262.8
283.01	22291.45
283.078	22363.51
283.146	22401.06
283.214	22474.92
283.282	22534.99
283.35	22618.26
283.418	22633.49
283.486	22687.92
283.554	22603.76
283.622	22653.37
283.69	22698.64
283.758	22722.84
283.826	22790.24
283.894	22856.3
283.962	22962.78
284.03	23058.25
284.098	23116.82
284.165	23144.5
284.233	23193
284.301	23222.9
284.369	23242.09
284.437	23250.24
284.505	23282.06
284.573	23378.36
284.641	23385.74
284.709	23453.98
284.777	23447.23
284.845	23517.84
284.912	23578.93
284.98	23644.81
285.048	23675.09
285.116	23741.12
285.184	23837.53
285.252	23889.95
285.319	23890.72
285.387	23898.39
285.455	23885.47
285.523	23949.86
285.591	23994.89
285.659	24036.42
285.726	24119.97
285.794	24132.99
285.862	24169.5
285.93	24206.64
285.997	24235.73
286.065	24265
286.133	24282.03
286.201	24325.06
286.269	24323.9
286.336	24343.72
286.404	24369.44
286.472	24438.23
286.539	24416
286.607	24404.08
286.675	24445.38
286.743	24523.43
286.81	24560.06
286.878	24651.87
286.946	24673.72
287.013	24725.24
287.081	24773.97
287.149	24769.29
287.216	24868.3
287.284	24901.88
287.352	24954.42
287.419	24991.43
287.487	25091.8
287.555	25152.85
287.622	25190.73
287.69	25261.91
287.758	25361.27
287.825	25396.88
287.893	25410.4
287.96	25467.66
288.028	25554.58
288.096	25608.88
288.163	25656.19
288.231	25666.47
288.298	25711.65
288.366	25793.13
288.433	25820.98
288.501	25843.18
288.569	25905.1
288.636	25944.02
288.704	26035.64
288.771	26114.38
288.839	26125.63
288.906	26144.07
288.974	26212.99
289.041	26246.63
289.109	26255.03
289.176	26314.82
289.244	26376.42
289.311	26463.34
289.379	26552.69
289.446	26603.5
289.514	26645.47
289.581	26701.49
289.649	26749.14
289.716	26795.27
289.783	26820
289.851	26925.11
289.918	26971.42
289.986	27046.38
290.053	27089.42
290.121	27127.29
290.188	27170.57
290.255	27314.82
290.323	27349.01
290.39	27376.07
290.458	27457.3
290.525	27553.14
290.592	27582.18
290.66	27633.19
290.727	27671.61
290.794	27765.21
290.862	27811.36
290.929	27870.26
290.996	27905.39
291.064	27991.68
291.131	28082.12
291.198	28161.23
291.266	28208.25
291.333	28263.42
291.4	28321.67
291.468	28426.09
291.535	28456.05
291.602	28518.41
291.669	28533.15
291.737	28593.46
291.804	28641.66
291.871	28733.51
291.938	28803.09
292.006	28937.75
292.073	29011.71
292.14	29077.56
292.207	29084.48
292.275	29127.6
292.342	29203.28
292.409	29331.99
292.476	29451.72
292.543	29466.13
292.611	29518.75
292.678	29625.84
292.745	29743.02
292.812	29821.69
292.879	29855.51
292.946	29923.64
293.014	30007.58
293.081	30086.24
293.148	30171.75
293.215	30258.84
293.282	30279.88
293.349	30348.94
293.416	30335.68
293.484	30427.52
293.551	30512.84
293.618	30621.46
293.685	30756.75
293.752	30778.76
293.819	30815.07
293.886	30815.65
293.953	30879.29
294.02	30962.06
294.087	31021.95
294.154	31042.72
294.221	31129.69
294.288	31187.1
294.356	31286.72
294.423	31346.47
294.49	31369.81
294.557	31458.89
294.624	31492.83
294.691	31608.79
294.758	31659.98
294.825	31728.11
294.892	31759.58
294.959	31807.29
295.026	31877.38
295.093	31909.21
295.16	31966.81
295.226	32003.82
295.293	32126.77
295.36	32184.88
295.427	32276.56
295.494	32346.33
295.561	32429.2
295.628	32551.37
295.695	32640.86
295.762	32694.59
295.829	32778.96
295.896	32886.12
295.963	32965.31
296.03	33041.95
296.096	33107.14
296.163	33192.97
296.23	33292.52
296.297	33378.87
296.364	33425.44
296.431	33482.2
296.498	33504.88
296.564	33634.71
296.631	33706.39
296.698	33710.95
296.765	33833.88
296.832	33842.94
296.899	33858.31
296.965	33965.31
297.032	33951.82
297.099	34061.72
297.166	34144
297.233	34181.15
297.299	34208.25
297.366	34266.49
297.433	34324.82
297.5	34404.94
297.566	34455.09
297.633	34501.12
297.7	34568.28
297.767	34624.57
297.833	34702.62
297.9	34768.9
297.967	34757.89
298.033	34857.18
298.1	35002.87
298.167	35025.86
298.234	35091.28
298.3	35179.95
298.367	35216.96
298.434	35294.5
298.5	35308.77
298.567	35358.54
298.634	35407.1
298.7	35521.89
298.767	35575.65
298.834	35673.17
298.9	35711.65
298.967	35744.3
299.033	35821.22
299.1	35921.2
299.167	36014.79
299.233	36044.24
299.3	36140.03
299.366	36264.09
299.433	36360.16
299.5	36328.75
299.566	36395.53
299.633	36496.91
299.699	36592.73
299.766	36634.91
299.832	36694.72
299.899	36766.61
299.965	36836.65
300.032	36871.21
300.099	36938.3
300.165	37000.63
300.232	37042.04
300.298	37095.1
300.365	37192.28
300.431	37246.37
300.498	37265.31
300.564	37324.34
300.631	37423.19
300.697	37524.2
300.763	37553.23
300.83	37582.32
300.896	37678.98
300.963	37756.52
301.029	37816.4
301.096	37858.41
301.162	37938.18
301.229	37964.6
301.295	37981.64
301.361	38043.75
301.428	38116.38
301.494	38111.38
301.561	38172.14
301.627	38228.66
301.693	38290.97
301.76	38344.01
301.826	38379.71
301.892	38462.61
301.959	38541.35
302.025	38566.22
302.092	38587.15
302.158	38673.6
302.224	38726.85
302.291	38752.1
302.357	38789.07
302.423	38817.19
302.49	38830.11
302.556	38908.28
302.622	38963.8
302.688	39055.51
302.755	39154.72
302.821	39221.95
302.887	39304.71
302.954	39354.9
303.02	39429.28
303.086	39488.06
303.152	39527.51
303.219	39565.01
303.285	39626.53
303.351	39685.57
303.417	39745.37
303.483	39761.99
303.55	39779.77
303.616	39827.93
303.682	39876.7
303.748	39904.73
303.815	40007.61
303.881	40105.37
303.947	40123.84
304.013	40174.22
304.079	40189.29
304.145	40154.78
304.212	40212.22
304.278	40236.9
304.344	40269.46
304.41	40263.82
304.476	40280.63
304.542	40309.74
304.608	40359.16
304.674	40344.97
304.741	40373.89
304.807	40426.71
304.873	40498.78
304.939	40601.81
305.005	40576.2
305.071	40609.15
305.137	40664.11
305.203	40622.7
305.269	40658.57
305.335	40749.47
305.401	40782.52
305.467	40812.26
305.533	40902.76
305.599	40962.79
305.666	41031.17
305.732	41072.09
305.798	41173.14
305.864	41299.05
305.93	41359.8
305.996	41418.42
306.062	41473.3
306.128	41508.83
306.194	41506.16
306.259	41541.11
306.325	41543.39
306.391	41628.94
306.457	41701.02
306.523	41746.71
306.589	41871.36
306.655	41883.08
306.721	41858.23
306.787	41865.62
306.853	41962.71
306.919	41924.89
306.985	41933.59
307.051	41953.13
307.117	41970.97
307.183	41982.25
307.248	41926.19
307.314	41980.65
307.38	42017.01
307.446	42076.09
307.512	42080.37
307.578	42146.09
307.644	42170.21
307.709	42216.74
307.775	42253.55
307.841	42287.92
307.907	42336.15
307.973	42299.05
308.039	42341.01
308.104	42387.15
308.17	42433.24
308.236	42427.99
308.302	42498.53
308.368	42496
308.433	42544.96
308.499	42569.66
308.565	42579.24
308.631	42618.48
308.696	42585.02
308.762	42593.14
308.828	42612.26
308.894	42601.61
308.959	42580.99
309.025	42601.37
309.091	42618.39
309.156	42618.63
309.222	42658.71
309.288	42635.9
309.354	42618.79
309.419	42647.04
309.485	42652.68
309.551	42703.4
309.616	42700.24
309.682	42724.8
309.748	42761.75
309.813	42775.03
309.879	42780.82
309.945	42786.99
310.01	42812.52
310.076	42863.48
310.141	42879.04
310.207	42881.23
310.273	42930.68
310.338	42967.93
310.404	42945.17
310.469	42946
310.535	42951.93
310.601	42912.64
310.666	43004.46
310.732	43090.88
310.797	43093.11
310.863	43098.9
310.928	43116.51
310.994	43151.23
311.059	43179.4
311.125	43189.12
311.191	43249
311.256	43263.2
311.322	43324.24
311.387	43308.05
311.453	44226.21
311.518	44242.99
311.584	44270.13
311.649	44319.5
311.715	44332.24
311.78	44383.45
311.846	44394.58
311.911	44456.84
311.976	44502.71
312.042	44470.94
312.107	44449.98
312.173	44467.1
312.238	44484.7
312.304	44497.16
312.369	44517.1
312.434	44520.36
312.5	44551.15
312.565	44489.08
312.631	44547.73
312.696	44542.43
312.761	44588.44
312.827	43715.32
312.892	43811.86
312.958	43844.26
313.023	43876.76
313.088	43916.06
313.154	43906.04
313.219	43907.11
313.284	43910.66
313.35	43932.31
313.415	43935.91
313.48	43945.98
313.546	43981.45
313.611	44042.4
313.676	44062.54
313.741	44066.73
313.807	44112.41
313.872	44156.2
313.937	44211.36
314.003	44265.86
314.068	44304.93
314.133	44361.03
314.198	44367.25
314.264	44335.71
314.329	44326.71
314.394	44330.95
314.459	44349.24
314.525	44445.28
314.59	44482.06
314.655	44475.78
314.72	44522.78
314.785	44558.88
314.851	44581.16
314.916	44553.19
314.981	44518.59
315.046	44509.4
315.111	44497.63
315.176	44491.11
315.242	44513.64
315.307	44539.23
315.372	44509.45
315.437	44496.7
315.502	44508.33
315.567	44574.76
315.632	44570.04
315.698	44605.03
315.763	44630.04
315.828	44628.15
315.893	44620.9
315.958	44635.59
316.023	44638.12
316.088	44595.2
316.153	44548.4
316.218	44540.23
316.283	44509.1
316.348	44481.57
316.413	44484.68
316.479	44453.26
316.544	44349.02
316.609	44258.05
316.674	44138.2
316.739	44010.97
316.804	43915.68
316.869	43777.05
316.934	43624.09
316.999	43499.96
317.064	43308.3
317.129	43142.05
317.194	43000.97
317.259	42821.26
317.324	42614.03
317.389	42428.35
317.454	42270.99
317.518	42134.04
317.583	42011.16
317.648	41886.41
317.713	41738.67
317.778	41509.69
317.843	41379.99
317.908	41210.23
317.973	41046.86
318.038	40918.2
318.103	40763.19
318.168	40595.18
318.233	40445.98
318.297	40241.4
318.362	40065.49
318.427	39896.82
318.492	39751.91
318.557	39542.25
318.622	39396.44
318.687	39276.17
318.751	39100.98
318.816	38937.32
318.881	38762.99
318.946	38526.15
319.011	38321.43
319.075	38122.42
319.14	37934.42
319.205	37711.33
319.27	37543.11
319.335	37318.96
319.399	37104.32
319.464	36924.04
319.529	36683.46
319.594	36472.3
319.658	36291.13
319.723	36076.05
319.788	35904.53
319.853	35652.39
319.917	35475.76
319.982	35213.1
320.047	34991.26
320.112	34814.52
320.176	34555
320.241	34340.2
320.306	34146.82
320.37	33921.32
320.435	33730.2
320.5	33542.74
320.564	33323.67
320.629	33097.03
320.694	32904.65
320.758	32673.63
320.823	32449.72
320.888	32270.66
320.952	32014.05
321.017	31778.09
321.082	31550.85
321.146	31337.5
321.211	31126.18
321.275	30890.22
321.34	30658.73
321.405	30417.89
321.469	30166.9
321.534	29932.6
321.598	29672.37
321.663	29469.79
321.727	29264.77
321.792	28996.52
321.857	28749.77
321.921	28526.76
321.986	28292.61
322.05	28001.71
322.115	27776.42
322.179	27526.55
322.244	27235.96
322.308	27014.84
322.373	26765.93
322.437	26528.29
322.502	26337.47
322.566	26078.39
322.631	25852.89
322.695	25625.86
322.76	25381.89
322.824	25166.02
322.889	24922.66
322.953	24669.06
323.018	24346.65
323.082	24024.42
323.146	23751.98
323.211	23486.85
323.275	23223.9
323.34	22957.97
323.404	22729.63
323.468	22474.22
323.533	22225.3
323.597	21967.13
323.662	21692.73
323.726	21464.42
323.79	21201.43
323.855	20869.5
323.919	20603.97
323.983	20345.09
324.048	19947.85
324.112	20117.33
324.177	19305.55
324.241	18255.31
324.305	17225.61
324.37	16213.32
324.434	15232.31
324.498	14959.45
324.562	14646.19
324.627	14300.27
324.691	13959.78
324.755	13580.41
324.82	13138.91
324.884	12673.67
324.948	12216.25
325.012	11652.83
325.077	10948.24
