Data from 20250701_urea_2M_exp3_MAYP1162681_21-29-51-241.txt Node
Date: Tue Jul 01 21:29:51 BST 2025
User: adleo
Spectrometer: MAYP116268
Trigger mode: 0
Integration Time (sec): 4.000000E0
Scans to average: 1
Electric dark correction enabled: true
Nonlinearity correction enabled: true
Boxcar width: 10
XAxis mode: Wavelengths
Number of Pixels in Spectrum: 2068
>>>>>Begin Spectral Data<<<<<
179.565	3885.94
179.642	4094.14
179.718	4250.08
179.795	4386.47
179.871	4503.41
179.948	4575.12
180.024	4652.62
180.101	4741.94
180.177	4797.42
180.254	4881.35
180.33	4961.09
180.407	5245.96
180.483	5550.71
180.56	5851.81
180.636	6130.32
180.712	6084.27
180.789	6126.36
180.865	6172.93
180.942	6203.88
181.018	6245.05
181.095	6295.91
181.171	6314.3
181.248	6307.77
181.324	6366.65
181.4	6396.27
181.477	6434.83
181.553	6477.1
181.63	6547.26
181.706	6595.92
181.782	6618.85
181.859	6617.12
181.935	6632.63
182.011	6617.12
182.088	6672.98
182.164	6747.18
182.24	6800.65
182.317	6834.26
182.393	6827.25
182.469	6875.43
182.546	6921.2
182.622	6936.38
182.698	6919.32
182.775	6964.29
182.851	7019.58
182.927	6991.95
183.003	6975.96
183.08	6955.74
183.156	6992.73
183.232	6982.2
183.308	6942.76
183.385	6973.35
183.461	7033.46
183.537	7043.55
183.613	7090.2
183.69	7058.35
183.766	7023.25
183.842	7047.9
183.918	7066.31
183.995	7107.14
184.071	7119.98
184.147	7103.54
184.223	7067.53
184.299	7108.24
184.375	7061.35
184.452	7080.15
184.528	7207.91
184.604	7246.39
184.68	7287.51
184.756	7307.75
184.832	7326.06
184.908	7343.11
184.985	7343.54
185.061	7285.12
185.137	7311.89
185.213	7273.26
185.289	7275.8
185.365	7245.54
185.441	7241.31
185.517	7288.58
185.593	7278.05
185.669	7269.88
185.745	7307.8
185.822	7362.32
185.898	7330.11
185.974	7369.74
186.05	7345.8
186.126	7267.64
186.202	7244.34
186.278	7229.29
186.354	7195.6
186.43	7215.03
186.506	7210.08
186.582	7209.02
186.658	7232.17
186.734	7160.98
186.81	7169.38
186.886	7184.9
186.962	7229.25
187.038	7210.36
187.114	7178.57
187.19	7208.09
187.266	7169.7
187.341	7166
187.417	7141.93
187.493	7143.7
187.569	7152.6
187.645	7130.69
187.721	7085.84
187.797	7112.17
187.873	7130.72
187.949	7111.22
188.025	7091.07
188.101	7099.24
188.176	7117.31
188.252	7104.91
188.328	7135.01
188.404	7130.31
188.48	7109.79
188.556	7087.54
188.632	7088.31
188.707	7097.11
188.783	7086.24
188.859	7070.64
188.935	7036.56
189.011	7062.51
189.086	7042
189.162	7008.99
189.238	7002.84
189.314	7005.43
189.39	6982.71
189.465	6957.24
189.541	7017.55
189.617	6964.85
189.693	6949.29
189.768	6959.33
189.844	7046.84
189.92	7019.33
189.996	7048.78
190.071	7086.26
190.147	7079.68
190.223	7116.84
190.298	7088.28
190.374	7040.18
190.45	7081.58
190.526	7107.29
190.601	7089.61
190.677	7097.68
190.753	7198.33
190.828	7212.64
190.904	7259.32
190.98	7314.79
191.055	7351.41
191.131	7318.29
191.207	7387.24
191.282	7423.61
191.358	7392.09
191.433	7336.15
191.509	7387.88
191.585	7377.3
191.66	7381.29
191.736	7417.05
191.811	7379.7
191.887	7434.23
191.963	7515.66
192.038	7535.84
192.114	7537.57
192.189	7547.76
192.265	7535.61
192.34	7458.65
192.416	7455.43
192.491	7442.25
192.567	7450.77
192.642	7462.88
192.718	7465.58
192.793	7422.75
192.869	7407.85
192.944	7421.64
193.02	7448.42
193.095	7457.46
193.171	7482.6
193.246	7485
193.322	7466.54
193.397	7472.07
193.473	7425.52
193.548	7364.65
193.624	7385.28
193.699	7385.28
193.775	7441.93
193.85	7446.35
193.925	7477.02
194.001	7476.01
194.076	7450.63
194.152	7410.1
194.227	7378.07
194.302	7340.41
194.378	7357.19
194.453	7343.73
194.529	7381.19
194.604	7334.22
194.679	7313.51
194.755	7243.84
194.83	7282.61
194.905	7278.29
194.981	7310.98
195.056	7291.37
195.131	7307.13
195.207	7301.27
195.282	7264.36
195.357	7190.37
195.433	7239
195.508	7200.01
195.583	7220.77
195.659	7264.67
195.734	7292.94
195.809	7291.3
195.884	7328.39
195.96	7331.51
196.035	7390.2
196.11	7376.83
196.185	7413.41
196.261	7424.08
196.336	7537.95
196.411	7488.17
196.486	7510.62
196.561	7478.74
196.637	7500.18
196.712	7563.47
196.787	7576.7
196.862	7629.23
196.937	7672.3
197.013	7691.63
197.088	7724.42
197.163	7801.63
197.238	7869.73
197.313	7867.28
197.388	7917.63
197.464	8022.27
197.539	8059.97
197.614	8035.64
197.689	8078.79
197.764	8139.32
197.839	8205.69
197.914	8177.88
197.989	8254.42
198.065	8294.06
198.14	8475.29
198.215	8580.13
198.29	8614.6
198.365	8656.66
198.44	8695.83
198.515	8793.82
198.59	8855.48
198.665	8952.03
198.74	8980.92
198.815	8989.93
198.89	9072.95
198.965	9170.46
199.04	9156.93
199.115	9209.82
199.19	9357.94
199.265	9363.09
199.34	9400.07
199.415	9523.18
199.49	9600.39
199.565	9635.74
199.64	9725.59
199.715	9712.82
199.79	9727.41
199.865	9754.77
199.94	9747.45
200.015	9854.23
200.09	9871.14
200.165	9891.32
200.24	9909.48
200.315	10044.64
200.39	10090.5
200.464	10109.96
200.539	10120.03
200.614	10173.2
200.689	10256.54
200.764	10280.01
200.839	10348.44
200.914	10367.03
200.989	10327.56
201.063	10377.28
201.138	10317.97
201.213	10312.57
201.288	10247.01
201.363	10261.94
201.438	10264.06
201.512	10322.67
201.587	10268.28
201.662	10285.14
201.737	10321.95
201.812	10348.93
201.886	10238.95
201.961	10269.55
202.036	10223.51
202.111	10213.11
202.186	10117.24
202.26	10055.14
202.335	9977.48
202.41	9952.63
202.485	9885.69
202.559	9815.52
202.634	9719.39
202.709	9752.8
202.784	9689.28
202.858	9693.8
202.933	9628.7
203.008	9599.9
203.082	9528.44
203.157	9525.16
203.232	9368.02
203.306	9294.51
203.381	9179.23
203.456	9099.54
203.53	9018.89
203.605	8948.36
203.68	8864.71
203.754	8835.08
203.829	8782.22
203.904	8712.53
203.978	8670.98
204.053	8690.77
204.127	8648.37
204.202	8647.94
204.277	8577.54
204.351	8557.18
204.426	8528.25
204.5	8500.67
204.575	8379.5
204.65	8417.87
204.724	8384.16
204.799	8416.91
204.873	8402.37
204.948	8397.51
205.022	8355.37
205.097	8323.45
205.171	8368.86
205.246	8396.87
205.32	8397.74
205.395	8397.6
205.469	8366.49
205.544	8386.32
205.618	8323.38
205.693	8362.93
205.767	8320.69
205.842	8398.02
205.916	8366.56
205.991	8330.47
206.065	8353.48
206.14	8408.13
206.214	8390.99
206.289	8368.22
206.363	8410.13
206.438	8421.73
206.512	8445.7
206.586	8512.09
206.661	8541.56
206.735	8470
206.81	8477.46
206.884	8529.9
206.958	8487.28
207.033	8547.69
207.107	8575.95
207.181	8682.53
207.256	8656.16
207.33	8722.56
207.405	8767.5
207.479	8838.68
207.553	8867.98
207.628	8805.54
207.702	8849.57
207.776	8819.54
207.851	8825.65
207.925	8879.34
207.999	8864.56
208.073	8858.11
208.148	8866.63
208.222	8824.61
208.296	8936.89
208.371	8987.99
208.445	9026.51
208.519	9128.59
208.593	9162.1
208.668	9143.12
208.742	9153.43
208.816	9166.43
208.89	9211.41
208.965	9207.94
209.039	9234.14
209.113	9288.4
209.187	9362.34
209.261	9342.22
209.336	9417.38
209.41	9491.1
209.484	9489.03
209.558	9563.63
209.632	9613.07
209.707	9652.85
209.781	9724.02
209.855	9777.39
209.929	9834.49
210.003	9856.55
210.077	9852.17
210.151	10021.4
210.226	10140.31
210.3	10237.85
210.374	10322.61
210.448	10341.01
210.522	10373.82
210.596	10415.79
210.67	10453.03
210.744	10617.71
210.818	10736.23
210.892	10811.3
210.966	10796.23
211.041	10850.33
211.115	10843.73
211.189	10931.71
211.263	10981.58
211.337	11012.42
211.411	11066.92
211.485	11050.44
211.559	11078.96
211.633	11085.08
211.707	10979.14
211.781	11004.25
211.855	10872.41
211.929	10838.88
212.003	10762.06
212.077	10798.11
212.151	10838.21
212.225	10870.4
212.299	10834.83
212.373	10791.17
212.447	10766.74
212.52	10862.2
212.594	10872.85
212.668	10910.72
212.742	10850.29
212.816	10832.17
212.89	10802.4
212.964	10780.33
213.038	10782.16
213.112	10826.16
213.186	10869.23
213.26	10788.41
213.333	10621.66
213.407	10640.74
213.481	10640.88
213.555	10679.55
213.629	10628.66
213.703	10558.74
213.777	10540.86
213.85	10464.19
213.924	10568.86
213.998	10560.58
214.072	10522.55
214.146	10464.25
214.219	10439.29
214.293	10416.36
214.367	10409.9
214.441	10440.45
214.515	10398.86
214.588	10308.39
214.662	10175.92
214.736	10099.18
214.81	10108.04
214.883	10127.1
214.957	10070.09
215.031	10010.54
215.105	9917.65
215.178	9848.05
215.252	9804.08
215.326	9697.11
215.4	9603.81
215.473	9418.2
215.547	9329.19
215.621	9259.86
215.694	9255.33
215.768	9150.03
215.842	9082.25
215.915	9004.08
215.989	8878.89
216.063	8817.82
216.136	8786.43
216.21	8761.55
216.284	8767.52
216.357	8747.21
216.431	8701.48
216.504	8694.16
216.578	8751.21
216.652	8758.72
216.725	8732.14
216.799	8739.17
216.873	8719.83
216.946	8722.81
217.02	8678.61
217.093	8643.14
217.167	8543.77
217.24	8455.1
217.314	8419.99
217.387	8367.72
217.461	8322.68
217.535	8347.41
217.608	8280.63
217.682	8255.8
217.755	8264.27
217.829	8197.23
217.902	8176.2
217.976	8157.44
218.049	8111.55
218.123	8032.66
218.196	8030.02
218.27	7994.99
218.343	7920.31
218.417	7916.27
218.49	7892.51
218.563	7937.96
218.637	7946.52
218.71	8019.85
218.784	8048.57
218.857	8085.22
218.931	8111.32
219.004	8127
219.077	8142.89
219.151	8161.69
219.224	8150.39
219.298	8143.31
219.371	8193.26
219.444	8154.5
219.518	8164.99
219.591	8187.83
219.665	8297.16
219.738	8312.75
219.811	8294.72
219.885	8339.7
219.958	8373.19
220.031	8377.14
220.105	8398.36
220.178	8401.3
220.251	8373.67
220.325	8395.42
220.398	8414.14
220.471	8437.52
220.544	8471.54
220.618	8444.83
220.691	8472.26
220.764	8493.71
220.838	8520.33
220.911	8505.6
220.984	8590.71
221.057	8624.01
221.131	8641.13
221.204	8541.37
221.277	8613.68
221.35	8737.03
221.424	8734
221.497	8747.72
221.57	8774.22
221.643	8809.18
221.716	8863.63
221.79	8865.31
221.863	8874.65
221.936	8884.37
222.009	8891.11
222.082	8917.83
222.155	8929.91
222.229	8996.55
222.302	9024.42
222.375	9033.37
222.448	9071.55
222.521	9072.27
222.594	9082.86
222.667	9059.43
222.74	9120.03
222.814	9110.16
222.887	9096.58
222.96	9148.09
223.033	9187.87
223.106	9219.64
223.179	9246.61
223.252	9259.13
223.325	9295.72
223.398	9311.27
223.471	9338.81
223.544	9364.08
223.617	9381.95
223.69	9409.48
223.763	9365.47
223.837	9395.47
223.91	9435.63
223.983	9389.85
224.056	9355.91
224.129	9369.01
224.202	9430.95
224.275	9411.3
224.348	9382.56
224.42	9337.2
224.493	9277.55
224.566	9252.84
224.639	9272.82
224.712	9243.49
224.785	9225.91
224.858	9213.92
224.931	9193.89
225.004	9148.06
225.077	9153.74
225.15	9055.6
225.223	9049.05
225.296	9144.14
225.369	9085.41
225.442	9044.38
225.514	9059.54
225.587	9083.12
225.66	9092.37
225.733	9089.67
225.806	9099.83
225.879	9093.72
225.952	9069.94
226.025	9121.6
226.097	9175.21
226.17	9166.45
226.243	9100.84
226.316	9096.99
226.389	9100.99
226.461	9119.24
226.534	9143.69
226.607	9131.41
226.68	9218.86
226.753	9213.76
226.825	9121.46
226.898	9177.88
226.971	9181.25
227.044	9201.76
227.117	9208.07
227.189	9221.22
227.262	9261.09
227.335	9287.15
227.407	9279.26
227.48	9315.5
227.553	9326.33
227.626	9299.31
227.698	9302.44
227.771	9339.54
227.844	9313.2
227.916	9334.44
227.989	9302.85
228.062	9304.1
228.134	9393.3
228.207	9389.11
228.28	9390.99
228.352	9402.4
228.425	9403.31
228.498	9451.57
228.57	9434.53
228.643	9497.72
228.716	9501.86
228.788	9483.36
228.861	9470.84
228.934	9538.64
229.006	9551.01
229.079	9554
229.151	9551.01
229.224	9516.93
229.296	9551.07
229.369	9659.16
229.442	9707.09
229.514	9685.1
229.587	9728.87
229.659	9651.76
229.732	9670.59
229.804	9708.58
229.877	9797.23
229.949	9833.02
230.022	9883.61
230.094	9889.77
230.167	9873.3
230.239	9829.48
230.312	9818.79
230.384	9896.45
230.457	9891.49
230.529	9895.34
230.602	9894.23
230.674	9901.7
230.747	9951.77
230.819	9985.25
230.892	9865.36
230.964	9862.95
231.037	9901.27
231.109	9889.42
231.181	9928.76
231.254	9890.81
231.326	9869.14
231.399	9834.98
231.471	9810.17
231.544	9729.57
231.616	9769.82
231.688	9781.63
231.761	9769.16
231.833	9757.03
231.905	9664.82
231.978	9660.78
232.05	9645.95
232.122	9655.82
232.195	9628.17
232.267	9667.29
232.339	9639.16
232.412	9710.61
232.484	9684.02
232.556	9652.59
232.629	9728.9
232.701	9753.57
232.773	9762.72
232.846	9756.22
232.918	9767.01
232.99	9781.08
233.062	9823.27
233.135	9841.14
233.207	9796.44
233.279	9841.94
233.351	9875.51
233.424	9878.78
233.496	9857.49
233.568	9950.85
233.64	9908.81
233.713	9930.48
233.785	9918.15
233.857	9932.21
233.929	9877.36
234.001	9947.37
234.074	10009.34
234.146	9936.64
234.218	9930.85
234.29	9936.73
234.362	9925.17
234.434	9880.66
234.507	9845.35
234.579	9794.39
234.651	9768.48
234.723	9806.1
234.795	9830.04
234.867	9820.79
234.939	9888.56
235.012	9907.3
235.084	9906.91
235.156	9950.06
235.228	9929.88
235.3	9914.61
235.372	9928.29
235.444	9987.24
235.516	9909.04
235.588	9922.14
235.66	9933.51
235.732	9900.9
235.804	10105.24
235.876	10155.8
235.948	10217.23
236.02	10233.85
236.092	10247.53
236.164	10264.82
236.236	10262.41
236.308	10261.54
236.38	10292.9
236.452	10268.96
236.524	10290.68
236.596	10355.56
236.668	10385.67
236.74	10415.34
236.812	10444.53
236.884	10478.21
236.956	10491.99
237.028	10479.52
237.1	10459.67
237.172	10539.61
237.244	10627.25
237.316	10495.71
237.388	10479.43
237.46	10455.24
237.532	10522.06
237.604	10518.26
237.675	10593.91
237.747	10649.71
237.819	10637.77
237.891	10641.52
237.963	10624.04
238.035	10624.13
238.107	10506.26
238.178	10573.06
238.25	10571.32
238.322	10668
238.394	10616.01
238.466	10620.69
238.538	10670.31
238.609	10718.15
238.681	10656.37
238.753	10632.41
238.825	10665.57
238.897	10698.09
238.968	10786.05
239.04	10768.07
239.112	10885.25
239.184	10845.78
239.255	10842.55
239.327	10880.32
239.399	10911.84
239.471	10968.06
239.542	11004.35
239.614	11080.05
239.686	10988.19
239.758	11053.29
239.829	11012.71
239.901	11087.73
239.973	11103.06
240.044	11138.76
240.116	11151.73
240.188	11168.16
240.259	11181.8
240.331	11161.55
240.403	11196.54
240.474	11142.99
240.546	11130.55
240.618	11063.37
240.689	11059.86
240.761	11076.68
240.833	11150.7
240.904	11147.48
240.976	11148.82
241.048	11161.55
241.119	11201.7
241.191	11259.33
241.262	11330.62
241.334	11334.19
241.405	11338.81
241.477	11339.15
241.549	11349.75
241.62	11375.44
241.692	11418.62
241.763	11483.02
241.835	11510.11
241.906	11530.54
241.978	11503.22
242.049	11572.61
242.121	11639.46
242.192	11713.2
242.264	11681.24
242.335	11622.49
242.407	11667.41
242.478	11672.13
242.55	11699.03
242.621	11679.65
242.693	11681.96
242.764	11657.24
242.836	11662.92
242.907	11695.99
242.979	11737.29
243.05	11756.09
243.122	11785.54
243.193	11790.89
243.264	11713.39
243.336	11716.33
243.407	11756.14
243.479	11841.6
243.55	11862.95
243.622	11879.34
243.693	11873.26
243.764	11944.98
243.836	11925.85
243.907	11915.83
243.978	11922.19
244.05	11944.36
244.121	11898.05
244.192	11942.15
244.264	11899.3
244.335	11916.22
244.407	11865.8
244.478	11880.07
244.549	11876.89
244.62	11825.94
244.692	11825.75
244.763	11876.31
244.834	11868.06
244.906	11843.38
244.977	11865.8
245.048	11918.78
245.119	11895.3
245.191	11877.23
245.262	11810.28
245.333	11892.36
245.405	11911.97
245.476	11944.12
245.547	11966.92
245.618	12019.17
245.689	12027.46
245.761	12064.72
245.832	12066.5
245.903	12118.89
245.974	12143.58
246.045	12156.3
246.117	12250.39
246.188	12230.24
246.259	12216.27
246.33	12233.47
246.401	12242.78
246.473	12201.75
246.544	12181.65
246.615	12240.17
246.686	12245.42
246.757	12326.79
246.828	12297.48
246.899	12376.34
246.97	12344.2
247.042	12331.47
247.113	12379.1
247.184	12479.12
247.255	12477.2
247.326	12509.01
247.397	12511.03
247.468	12528.15
247.539	12537.21
247.61	12485.15
247.681	12542.41
247.752	12600.83
247.823	12581.07
247.894	12608.11
247.965	12577.36
248.037	12561.89
248.108	12509.2
248.179	12512.82
248.25	12499.51
248.321	12537.93
248.392	12482.88
248.463	12566.8
248.534	12570.32
248.605	12594.95
248.675	12560
248.746	12580.2
248.817	12595.91
248.888	12622.18
248.959	12559.62
249.03	12598.61
249.101	12612.16
249.172	12589.75
249.243	12509.97
249.314	12579.34
249.385	12584.11
249.456	12620.74
249.527	12620.36
249.598	12651.35
249.669	12659.79
249.739	12681.14
249.81	12694.78
249.881	12657.71
249.952	12652.75
250.023	12644.75
250.094	12587.48
250.165	12556
250.235	12554.51
250.306	12558.6
250.377	12519.89
250.448	12557.93
250.519	12488.95
250.59	12552.63
250.66	12555.81
250.731	12627.87
250.802	12623.58
250.873	12640.26
250.944	12668.55
251.014	12663.3
251.085	12753.44
251.156	12780.34
251.227	12835.63
251.297	12892.37
251.368	12945.78
251.439	12994.57
251.51	13058.3
251.58	13049.86
251.651	13041.09
251.722	13099.66
251.792	13051.55
251.863	13060.03
251.934	13120.68
252.005	13236.56
252.075	13239.6
252.146	13288.67
252.217	13350.91
252.287	13393.52
252.358	13399.64
252.429	13474.17
252.499	13463.27
252.57	13472.63
252.641	13524.11
252.711	13525.12
252.782	13474.22
252.852	13548.12
252.923	13544.55
252.994	13555.16
253.064	13602.78
253.135	13586.58
253.205	13558.24
253.276	13634.31
253.347	13692.4
253.417	13670.03
253.488	13649.06
253.558	13639.32
253.629	13642.5
253.699	13651.66
253.77	13680.1
253.841	13672.97
253.911	13676.97
253.982	13700.4
254.052	13730.57
254.123	13735.54
254.193	13738
254.264	13883.14
254.334	13855.76
254.405	13820.42
254.475	13782.15
254.546	13785.76
254.616	13856.58
254.687	13890.56
254.757	13918.47
254.827	13928.55
254.898	13954.77
254.968	13962.87
255.039	13945.33
255.109	13978.25
255.18	13939.64
255.25	13862.89
255.321	13897.22
255.391	13859.23
255.461	13936.22
255.532	13848.58
255.602	13843.66
255.673	13783.5
255.743	13745.66
255.813	13664.15
255.884	13719.29
255.954	13764.32
256.024	13828.67
256.095	13829.45
256.165	13794.35
256.235	13809.68
256.306	13790.25
256.376	13833.44
256.446	13879.19
256.517	13913.08
256.587	13954.34
256.657	13984.57
256.728	14012.72
256.798	14020
256.868	14016.05
256.938	13989.39
257.009	14034.08
257.079	14065.32
257.149	14172.96
257.219	14102.44
257.29	14146.01
257.36	14082.86
257.43	14120.17
257.5	14058.76
257.571	14050.03
257.641	14084.5
257.711	14049.65
257.781	14089.95
257.852	14102.82
257.922	14029.11
257.992	14029.31
258.062	14032.34
258.132	14070.86
258.202	14074.38
258.273	14084.84
258.343	14164.52
258.413	14162.69
258.483	14179.22
258.553	14144.03
258.623	14109.23
258.693	14145.72
258.764	14218.61
258.834	14297.72
258.904	14306.63
258.974	14298.63
259.044	14303.02
259.114	14332.95
259.184	14361.49
259.254	14368.29
259.324	14321.48
259.394	14376.97
259.464	14471.93
259.535	14473.13
259.605	14466.77
259.675	14460.89
259.745	14501.38
259.815	14471.2
259.885	14465.37
259.955	14577.77
260.025	14572.52
260.095	14589.68
260.165	14620.05
260.235	14684.35
260.305	14664.1
260.375	14634.89
260.445	14723.97
260.515	14792.52
260.585	14849.64
260.655	14859.62
260.725	14900.3
260.795	14935.78
260.865	15006.54
260.934	14963.59
261.004	14997.48
261.074	15001.19
261.144	15064.78
261.214	15106.95
261.284	15113.07
261.354	15154.92
261.424	15111.64
261.494	15182.31
261.564	15195.27
261.634	15227.13
261.703	15156.9
261.773	15181.44
261.843	15221.26
261.913	15217.16
261.983	15158.16
262.053	15175.17
262.123	15179.51
262.192	15141.28
262.262	15191.85
262.332	15146.49
262.402	15181.34
262.472	15187.99
262.541	15130.53
262.611	15174.97
262.681	15150.83
262.751	15191.07
262.821	15189.68
262.89	15158.35
262.96	15188.71
263.03	15261.01
263.1	15270.17
263.169	15285.93
263.239	15317.7
263.309	15381.56
263.379	15416.85
263.448	15444.47
263.518	15465.82
263.588	15481.92
263.657	15554.99
263.727	15587.72
263.797	15599.05
263.867	15596.73
263.936	15556.68
264.006	15623.01
264.076	15620.74
264.145	15614.24
264.215	15599.73
264.285	15649.96
264.354	15596.88
264.424	15573.36
264.494	15526.66
264.563	15526.32
264.633	15621.51
264.702	15647.97
264.772	15585.94
264.842	15581.17
264.911	15609.51
264.981	15567.2
265.05	15579.25
265.12	15571.92
265.19	15581.03
265.259	15621.23
265.329	15661.96
265.398	15691.36
265.468	15785.59
265.537	15777.3
265.607	15813.06
265.676	15860.35
265.746	15886.42
265.815	15952.46
265.885	15969.57
265.955	15950.34
266.024	15943.69
266.094	15869.94
266.163	15935.01
266.232	16008.27
266.302	16015.45
266.371	16045.72
266.441	16067.51
266.51	16107.22
266.58	16110.55
266.649	16097.58
266.719	16154.26
266.788	16180.43
266.858	16250.85
266.927	16180.1
266.996	16207.28
267.066	16244.54
267.135	16211.33
267.205	16249.02
267.274	16266.56
267.343	16327.82
267.413	16352.11
267.482	16420.07
267.552	16479.45
267.621	16431.59
267.69	16384.99
267.76	16411.35
267.829	16436.61
267.898	16455.07
267.968	16438.29
268.037	16477.19
268.106	16526.64
268.176	16490.25
268.245	16495.74
268.314	16489.82
268.384	16554.11
268.453	16582.45
268.522	16597.87
268.592	16662.84
268.661	16652.24
268.73	16685.4
268.799	16667.09
268.869	16739.91
268.938	16694.27
269.007	16682.94
269.076	16709.16
269.146	16767.48
269.215	16802.95
269.284	16882.13
269.353	16877.31
269.422	16888.3
269.492	16881.36
269.561	16802.9
269.63	16833.46
269.699	16831.38
269.768	16855.1
269.838	16882.52
269.907	16916.64
269.976	16885.79
270.045	16831.86
270.114	16872.73
270.183	16884.83
270.253	16916.54
270.322	16878.27
270.391	16905.41
270.46	16972.44
270.529	17013.46
270.598	17053.36
270.667	17059.05
270.736	17024.2
270.806	17059.44
270.875	17123.24
270.944	17142.57
271.013	17270.67
271.082	17304.74
271.151	17333.03
271.22	17291.83
271.289	17304.16
271.358	17311.92
271.427	17357.95
271.496	17383.88
271.565	17377.04
271.634	17394.58
271.703	17515.63
271.772	17573.08
271.841	17591.39
271.91	17570.96
271.979	17589.18
272.048	17557.8
272.117	17604.94
272.186	17605.27
272.255	17663.83
272.324	17700.5
272.393	17740.5
272.462	17727.25
272.531	17749.03
272.6	17767.34
272.669	17843.92
272.738	17851.1
272.807	17882.33
272.876	17861.41
272.945	18011.44
273.013	18069.75
273.082	18132.15
273.151	18049.41
273.22	18094.37
273.289	18116.73
273.358	18198.27
273.427	18206.8
273.496	18269.11
273.564	18310.17
273.633	18362.56
273.702	18343.28
273.771	18359.95
273.84	18388.96
273.909	18432.91
273.977	18477.44
274.046	18489.54
274.115	18542.69
274.184	18537
274.253	18558.21
274.322	18640.81
274.39	18578.69
274.459	18575.22
274.528	18531.7
274.597	18555.75
274.665	18585.39
274.734	18656.85
274.803	18662.49
274.872	18683.46
274.94	18680.08
275.009	18909.72
275.078	18909.29
275.147	18949.48
275.215	18973.33
275.284	19041.66
275.353	19052.36
275.421	19013.04
275.49	19115.15
275.559	19130.82
275.627	19158.48
275.696	19177.66
275.765	19220.69
275.833	19239.77
275.902	19283.19
275.971	19365.31
276.039	19450.41
276.108	19503.18
276.177	19540.58
276.245	19544.77
276.314	19581.44
276.383	19637.44
276.451	19459.22
276.52	19512.61
276.588	19593.58
276.657	19650.59
276.725	19658.34
276.794	19699.84
276.863	19779.64
276.931	19735.93
277	19794.68
277.068	19865.27
277.137	19971.73
277.205	20002.33
277.274	20103.1
277.342	20190.28
277.411	20168.93
277.48	20161.75
277.548	20165.42
277.617	20201.99
277.685	20233.9
277.754	20291.1
277.822	20316.5
277.89	20405.8
277.959	20427.68
278.027	20406.58
278.096	20414.43
278.164	20543.12
278.233	20551.41
278.301	20557.19
278.37	20624.91
278.438	20628.91
278.507	20685.48
278.575	20635.55
278.643	20666.64
278.712	20643.84
278.78	20621.62
278.849	20704.23
278.917	20796.91
278.985	20823.8
279.054	20877.35
279.122	20962.56
279.191	20995.91
279.259	21022.03
279.327	20990.99
279.396	21090.52
279.464	21129.12
279.532	21201.9
279.601	21232.76
279.669	21273.58
279.737	21368.68
279.806	21425.17
279.874	21492.36
279.942	21524.41
280.011	21557.09
280.079	21627.75
280.147	21732.25
280.215	21795.97
280.284	21824.6
280.352	21809.41
280.42	21891.26
280.488	21909.77
280.557	21920.96
280.625	21981.84
280.693	22030.38
280.761	22093.57
280.83	22081.81
280.898	22166.31
280.966	22137.1
281.034	22063.24
281.102	22060.49
281.171	22076.89
281.239	22146.61
281.307	22168.88
281.375	22173.36
281.443	22300.68
281.512	22336.12
281.58	22396.05
281.648	22400.29
281.716	22443.39
281.784	22497.24
281.852	22516.67
281.92	22548.2
281.989	22626.11
282.057	22607.36
282.125	22801.11
282.193	22825.7
282.261	22870.15
282.329	22898.98
282.397	22964.69
282.465	23017.96
282.533	23123.54
282.601	23128.98
282.67	23092.43
282.738	23106.22
282.806	23196.72
282.874	23197.15
282.942	23248.56
283.01	23267.52
283.078	23327.26
283.146	23367.23
283.214	23448.44
283.282	23496.47
283.35	23586.42
283.418	23616.91
283.486	23677.66
283.554	23576.77
283.622	23617.91
283.69	23669.56
283.758	23696.32
283.826	23764.71
283.894	23849.64
283.962	23953.5
284.03	24052.61
284.098	24111.98
284.165	24146.55
284.233	24187.5
284.301	24216.25
284.369	24230.91
284.437	24250.64
284.505	24278.71
284.573	24373.55
284.641	24360.91
284.709	24435.11
284.777	24426.62
284.845	24495.57
284.912	24560.36
284.98	24618.73
285.048	24651.43
285.116	24709.57
285.184	24805.35
285.252	24852.1
285.319	24838.74
285.387	24852.2
285.455	24847.57
285.523	24912.8
285.591	24953.75
285.659	25007.56
285.726	25101.32
285.794	25097.8
285.862	25141.37
285.93	25185.85
285.997	25210.22
286.065	25253.31
286.133	25257.02
286.201	25294.32
286.269	25289.64
286.336	25304.94
286.404	25330.51
286.472	25420.19
286.539	25397.27
286.607	25365.13
286.675	25402.68
286.743	25484.81
286.81	25507.84
286.878	25598.24
286.946	25613.59
287.013	25658.99
287.081	25691.82
287.149	25679.51
287.216	25799.26
287.284	25834.45
287.352	25877.21
287.419	25913.23
287.487	25999.59
287.555	26064.82
287.622	26100.93
287.69	26171.27
287.758	26259.91
287.825	26297.18
287.893	26283.03
287.96	26343.99
288.028	26443.21
288.096	26496.76
288.163	26552.24
288.231	26565.28
288.298	26600.44
288.366	26696.11
288.433	26733.23
288.501	26757.42
288.569	26821.45
288.636	26827.39
288.704	26916.94
288.771	26988.23
288.839	26999.28
288.906	27030.35
288.974	27109.98
289.041	27139.53
289.109	27134.22
289.176	27207.28
289.244	27258.62
289.311	27351.17
289.379	27429.75
289.446	27484.69
289.514	27522.18
289.581	27563.83
289.649	27616.05
289.716	27668.86
289.783	27686.35
289.851	27798.34
289.918	27839.16
289.986	27910.73
290.053	27978.66
290.121	28005.78
290.188	28060.29
290.255	28210.22
290.323	28238.34
290.39	28261.21
290.458	28342.09
290.525	28447.69
290.592	28469.06
290.66	28519.94
290.727	28556.44
290.794	28654.78
290.862	28695.2
290.929	28760.8
290.996	28803.72
291.064	28879.18
291.131	28967.15
291.198	29055.25
291.266	29094.08
291.333	29155.37
291.4	29223.08
291.468	29326.35
291.535	29372.72
291.602	29431
291.669	29441.16
291.737	29501.3
291.804	29536.37
291.871	29632.37
291.938	29703.2
292.006	29851.92
292.073	29949.14
292.14	30025.13
292.207	30036.36
292.275	30082.61
292.342	30160.21
292.409	30300.99
292.476	30432.83
292.543	30448.8
292.611	30488.82
292.678	30597.09
292.745	30726.92
292.812	30792.36
292.879	30820.77
292.946	30865.14
293.014	30949.46
293.081	31028.99
293.148	31136.14
293.215	31239.1
293.282	31262.67
293.349	31340.78
293.416	31300.05
293.484	31384.06
293.551	31462.06
293.618	31573.99
293.685	31709.64
293.752	31723.34
293.819	31746.74
293.886	31736.56
293.953	31805.07
294.02	31885.12
294.087	31935.6
294.154	31948.63
294.221	32045.82
294.288	32096.96
294.356	32205.58
294.423	32272.39
294.49	32293.21
294.557	32357.07
294.624	32373.59
294.691	32492.84
294.758	32540.38
294.825	32628.25
294.892	32646.23
294.959	32689.5
295.026	32748.14
295.093	32766.8
295.16	32825.88
295.226	32874.1
295.293	33025.38
295.36	33084.06
295.427	33166.8
295.494	33258.67
295.561	33339.83
295.628	33466.92
295.695	33563.18
295.762	33631.19
295.829	33722.05
295.896	33834.06
295.963	33918.33
296.03	33996.94
296.096	34063.66
296.163	34151.33
296.23	34249.82
296.297	34352.93
296.364	34412.13
296.431	34490.25
296.498	34518.27
296.564	34657.08
296.631	34732.58
296.698	34728.56
296.765	34856.5
296.832	34881.67
296.899	34898.74
296.965	35020.93
297.032	35003.65
297.099	35122.82
297.166	35205.91
297.233	35235.75
297.299	35264.95
297.366	35329.43
297.433	35398.74
297.5	35473.95
297.566	35524.75
297.633	35569.73
297.7	35626.55
297.767	35675.2
297.833	35739.45
297.9	35807.01
297.967	35799.2
298.033	35889.32
298.1	36038.91
298.167	36059.78
298.234	36137.36
298.3	36225.05
298.367	36253.25
298.434	36331.4
298.5	36339.37
298.567	36361.11
298.634	36407.07
298.7	36503.06
298.767	36545.97
298.834	36635.76
298.9	36673.48
298.967	36701
299.033	36788.05
299.1	36894.66
299.167	36984.78
299.233	37017.02
299.3	37122.2
299.366	37238.01
299.433	37332.85
299.5	37290.03
299.566	37350.61
299.633	37453.55
299.699	37532.65
299.766	37579.65
299.832	37629.57
299.899	37706.78
299.965	37797.62
300.032	37843.6
300.099	37921.59
300.165	38001.61
300.232	38047.41
300.298	38107.28
300.365	38205.81
300.431	38253.51
300.498	38274.68
300.564	38347.09
300.631	38439.03
300.697	38537.24
300.763	38575.9
300.83	38595.86
300.896	38691.68
300.963	38771
301.029	38825.5
301.096	38874.81
301.162	38956.41
301.229	38993.23
301.295	39002.95
301.361	39072.85
301.428	39138.17
301.494	39143.86
301.561	39191.42
301.627	39254.67
301.693	39306.84
301.76	39367.47
301.826	39397.54
301.892	39483.15
301.959	39562.15
302.025	39595.77
302.092	39609.04
302.158	39698.14
302.224	39771.46
302.291	39783.61
302.357	39816.74
302.423	39841.28
302.49	39864.41
302.556	39951.15
302.622	40004.89
302.688	40105.38
302.755	40194.32
302.821	40258.45
302.887	40341.68
302.954	40394.16
303.02	40458.5
303.086	40523.81
303.152	40544.9
303.219	40580.42
303.285	40637.92
303.351	40700.58
303.417	40755.88
303.483	40790.97
303.55	40797.96
303.616	40840.3
303.682	40888.89
303.748	40917.71
303.815	41024.36
303.881	41106.84
303.947	41116.17
304.013	41165.75
304.079	41175.18
304.145	41144.16
304.212	41195.83
304.278	41211.96
304.344	41237.38
304.41	41240.64
304.476	41258.92
304.542	41305.96
304.608	41373.48
304.674	41363.71
304.741	41381.26
304.807	41437.5
304.873	41498.51
304.939	41597.92
305.005	41577.21
305.071	41613.66
305.137	41665.09
305.203	41622.79
305.269	41661.73
305.335	41733.79
305.401	41770.45
305.467	41810.21
305.533	41888.34
305.599	41954.5
305.666	42028.35
305.732	42084.36
305.798	42173.91
305.864	42306.71
305.93	42366.03
305.996	42385.23
306.062	42441.19
306.128	42480.63
306.194	42477.96
306.259	42516.32
306.325	42527.6
306.391	42615.27
306.457	42699.57
306.523	42758.16
306.589	42883.82
306.655	42909.16
306.721	42898.95
306.787	42885.97
306.853	42974.72
306.919	42962.9
306.985	42977
307.051	42995.05
307.117	43007.74
307.183	43032.59
307.248	42966.98
307.314	43024.42
307.38	43095.18
307.446	43154.03
307.512	43164.78
307.578	43225.85
307.644	43252.85
307.709	43302.7
307.775	43327.8
307.841	43344.77
307.907	43388.16
307.973	43356.15
308.039	43381.39
308.104	43436.01
308.17	43499.37
308.236	43497.47
308.302	43562.55
308.368	43565.56
308.433	43605.69
308.499	43626.65
308.565	43619.69
308.631	43685.11
308.696	43642.55
308.762	43645.47
308.828	43676.56
308.894	43651.51
308.959	43627.73
309.025	43645.58
309.091	43678.13
309.156	43691.17
309.222	43747.7
309.288	43740.64
309.354	43724.2
309.419	43757.67
309.485	43749.65
309.551	43811.82
309.616	43803.16
309.682	43818.54
309.748	43847.96
309.813	43866.69
309.879	43878.27
309.945	43892.37
310.01	43893.78
310.076	43940.97
310.141	43958.38
310.207	43933.57
310.273	43991.25
310.338	44039.4
310.404	44023.89
310.469	44014.11
310.535	44027.49
310.601	43975.14
310.666	44033.91
310.732	44100.66
310.797	44104.74
310.863	44109.61
310.928	44116.18
310.994	44156.17
311.059	44179.23
311.125	44199.47
311.191	44269.21
311.256	44293.14
311.322	44337.27
311.387	44308.91
311.453	45182.32
311.518	45198.03
311.584	45234.67
311.649	45292.67
311.715	45285.13
311.78	45326.38
311.846	45324.97
311.911	45378.99
311.976	45428.76
312.042	45406.42
312.107	45393.14
312.173	45398.93
312.238	45413.67
312.304	45435.96
312.369	45450.85
312.434	45449.93
312.5	45468.22
312.565	45403.54
312.631	45450.64
312.696	45462.71
312.761	45523.67
312.827	44695.32
312.892	44808.66
312.958	44836.2
313.023	44861.42
313.088	44906.52
313.154	44891.88
313.219	44895.33
313.284	44905.36
313.35	44931.69
313.415	44951.05
313.48	44976.11
313.546	45020.06
313.611	45093.4
313.676	45103.38
313.741	45104.55
313.807	45171.38
313.872	45217.96
313.937	45268.18
314.003	45322.65
314.068	45366.46
314.133	45423.95
314.198	45414.99
314.264	45374.33
314.329	45367.37
314.394	45374.18
314.459	45405.23
314.525	45501.55
314.59	45530.36
314.655	45503.54
314.72	45554.51
314.785	45589.51
314.851	45590.97
314.916	45568.09
314.981	45545.41
315.046	45545.55
315.111	45553.1
315.176	45544.53
315.242	45583.72
315.307	45609.28
315.372	45575.98
315.437	45567.02
315.502	45564.83
315.567	45651.15
315.632	45630.12
315.698	45679.14
315.763	45705
315.828	45695.12
315.893	45696.09
315.958	45707.14
316.023	45704.8
316.088	45666.59
316.153	45616.26
316.218	45615.05
316.283	45568.87
316.348	45531.3
316.413	45530.08
316.479	45487.94
316.544	45378.21
316.609	45269.86
316.674	45145.98
316.739	45030.72
316.804	44916.08
316.869	44781.78
316.934	44624.33
316.999	44507.22
317.064	44315.81
317.129	44143.36
317.194	43998.45
317.259	43819.49
317.324	43626.26
317.389	43458.95
317.454	43304.02
317.518	43149.66
317.583	43023.1
317.648	42909.5
317.713	42739
317.778	42506.92
317.843	42367.9
317.908	42200.03
317.973	42031.61
318.038	41900.3
318.103	41731
318.168	41578.84
318.233	41417.21
318.297	41208.49
318.362	41022.58
318.427	40836.36
318.492	40698.95
318.557	40495.3
318.622	40343.57
318.687	40215.69
318.751	40021.7
318.816	39826.94
318.881	39657.97
318.946	39418.97
319.011	39195.5
319.075	38985.72
319.14	38802.99
319.205	38583.87
319.27	38394.68
319.335	38167.25
319.399	37951.73
319.464	37791.14
319.529	37533.2
319.594	37326.07
319.658	37149.55
319.723	36933.92
319.788	36762.68
319.853	36488.41
319.917	36293.59
319.982	36028.6
320.047	35809.73
320.112	35632.2
320.176	35385.26
320.241	35162.14
320.306	34963.07
320.37	34737.98
320.435	34562.27
320.5	34364.44
320.564	34135.87
320.629	33908.86
320.694	33718.44
320.758	33485
320.823	33233.29
320.888	33060.45
320.952	32796.01
321.017	32546.58
321.082	32321.32
321.146	32108.64
321.211	31901.16
321.275	31672.33
321.34	31428.01
321.405	31174.37
321.469	30924.43
321.534	30693.17
321.598	30445.69
321.663	30253.61
321.727	30058.28
321.792	29788.7
321.857	29534.14
321.921	29298.86
321.986	29051.92
322.05	28759
322.115	28538.01
322.179	28287.27
322.244	27985.69
322.308	27782.51
322.373	27541.38
322.437	27305.76
322.502	27103.89
322.566	26853.63
322.631	26619.91
322.695	26384.6
322.76	26134.44
322.824	25907.97
322.889	25653.49
322.953	25390
323.018	25059.7
323.082	24727.1
323.146	24447.11
323.211	24165.08
323.275	23906.13
323.34	23650.68
323.404	23419.88
323.468	23153.26
323.533	22895.39
323.597	22640.75
323.662	22350
323.726	22105.46
323.79	21833.12
323.855	21496.18
323.919	21219.81
323.983	20956.43
324.048	20563.47
324.112	20758.01
324.177	19940.88
324.241	18860.36
324.305	17796.48
324.37	16744.76
324.434	15733.34
324.498	15454.05
324.562	15142.85
324.627	14791.57
324.691	14442.54
324.755	14045.77
324.82	13591.92
324.884	13120.5
324.948	12643.67
325.012	12069.31
325.077	11357.87
