Data from 20250701_urea_2M_exp3_MAYP1162681_07-59-52-186.txt Node
Date: Wed Jul 02 07:59:52 BST 2025
User: adleo
Spectrometer: MAYP116268
Trigger mode: 0
Integration Time (sec): 4.000000E0
Scans to average: 1
Electric dark correction enabled: true
Nonlinearity correction enabled: true
Boxcar width: 10
XAxis mode: Wavelengths
Number of Pixels in Spectrum: 2068
>>>>>Begin Spectral Data<<<<<
179.565	3784.62
179.642	3977.68
179.718	4134.76
179.795	4269.76
179.871	4392.6
179.948	4456.66
180.024	4530.18
180.101	4611.92
180.177	4663.49
180.254	4746.67
180.33	4822.12
180.407	5099.06
180.483	5393.44
180.56	5693.15
180.636	5964.32
180.712	5929.14
180.789	5961.43
180.865	6003.62
180.942	6027.46
181.018	6065.99
181.095	6114.53
181.171	6133.63
181.248	6138.38
181.324	6187.59
181.4	6214.66
181.477	6247.41
181.553	6297.44
181.63	6366.38
181.706	6424.63
181.782	6453.65
181.859	6453.21
181.935	6474.01
182.011	6459.26
182.088	6514.44
182.164	6582.38
182.24	6635.65
182.317	6666.8
182.393	6659.89
182.469	6709.59
182.546	6760.01
182.622	6775.62
182.698	6761.98
182.775	6805.11
182.851	6852.8
182.927	6827.29
183.003	6809.72
183.08	6788.93
183.156	6820.87
183.232	6811.16
183.308	6765.63
183.385	6797.61
183.461	6852.04
183.537	6861.12
183.613	6907.33
183.69	6877.26
183.766	6836.02
183.842	6857.54
183.918	6876.47
183.995	6921.67
184.071	6927.62
184.147	6911.91
184.223	6877.21
184.299	6919.98
184.375	6882.13
184.452	6908.33
184.528	7040.29
184.604	7082.98
184.68	7123.47
184.756	7141.98
184.832	7159.47
184.908	7180.93
184.985	7178.19
185.061	7125.25
185.137	7152.98
185.213	7110.95
185.289	7111.14
185.365	7090.92
185.441	7085.78
185.517	7130.44
185.593	7117.28
185.669	7114.63
185.745	7146.93
185.822	7204.89
185.898	7174.32
185.974	7206.16
186.05	7175.78
186.126	7098.84
186.202	7070.31
186.278	7060.41
186.354	7029.56
186.43	7053.21
186.506	7047.59
186.582	7043.75
186.658	7063.96
186.734	6992.83
186.81	7001.23
186.886	7019.63
186.962	7062.14
187.038	7050.13
187.114	7022.67
187.19	7051.13
187.266	7015.68
187.341	7016.69
187.417	6987.04
187.493	6985.12
187.569	6995.7
187.645	6971.73
187.721	6931.16
187.797	6961.91
187.873	6976.66
187.949	6962.01
188.025	6938.21
188.101	6943.73
188.176	6960.74
188.252	6949.93
188.328	6974.22
188.404	6974.27
188.48	6954.15
188.556	6928.25
188.632	6929.45
188.707	6935.03
188.783	6925.12
188.859	6910.96
188.935	6870.5
189.011	6892.17
189.086	6867.96
189.162	6837.41
189.238	6831.98
189.314	6823
189.39	6801.86
189.465	6777.74
189.541	6829.35
189.617	6780.55
189.693	6763.26
189.768	6774.94
189.844	6856.27
189.92	6833.66
189.996	6862.77
190.071	6901.69
190.147	6898.28
190.223	6925.43
190.298	6892.08
190.374	6847.21
190.45	6886.54
190.526	6922.19
190.601	6913.16
190.677	6921.13
190.753	7018.25
190.828	7033.57
190.904	7085.42
190.98	7136.51
191.055	7172.26
191.131	7147.65
191.207	7216.79
191.282	7251.32
191.358	7219.32
191.433	7174.36
191.509	7216.47
191.585	7209.21
191.66	7208.2
191.736	7239.39
191.811	7206.13
191.887	7268.2
191.963	7346.72
192.038	7366.43
192.114	7361.19
192.189	7371.61
192.265	7356.01
192.34	7280.45
192.416	7276.03
192.491	7264.06
192.567	7269.02
192.642	7278.92
192.718	7279.02
192.793	7234.27
192.869	7224.57
192.944	7231.39
193.02	7252.3
193.095	7269.22
193.171	7287.91
193.246	7290.17
193.322	7278.92
193.397	7284.06
193.473	7229.69
193.548	7168.45
193.624	7184.41
193.699	7183.69
193.775	7238.07
193.85	7249.35
193.925	7276.32
194.001	7279.11
194.076	7256.57
194.152	7224.31
194.227	7194.84
194.302	7155.6
194.378	7169.24
194.453	7155.56
194.529	7198.23
194.604	7143.55
194.679	7121.3
194.755	7058.37
194.83	7100.93
194.905	7088.06
194.981	7120.69
195.056	7100.47
195.131	7123.39
195.207	7115.07
195.282	7084.22
195.357	7018.84
195.433	7069.87
195.508	7030.41
195.583	7054
195.659	7099.48
195.734	7118.7
195.809	7114.76
195.884	7146.51
195.96	7151.74
196.035	7207.1
196.11	7190.47
196.185	7234.72
196.261	7248.03
196.336	7355.3
196.411	7304.76
196.486	7325.14
196.561	7296.68
196.637	7322.05
196.712	7376.39
196.787	7392.31
196.862	7442.52
196.937	7474.15
197.013	7497.23
197.088	7529.43
197.163	7598.16
197.238	7652.49
197.313	7656.72
197.388	7703.93
197.464	7811.3
197.539	7848.13
197.614	7825.15
197.689	7872.95
197.764	7930.15
197.839	7993.96
197.914	7968.03
197.989	8044.17
198.065	8093.08
198.14	8273.28
198.215	8366.45
198.29	8405.58
198.365	8447.97
198.44	8488.53
198.515	8584.39
198.59	8636.75
198.665	8732.99
198.74	8761.01
198.815	8767.9
198.89	8841.23
198.965	8945.08
199.04	8927.02
199.115	8981.98
199.19	9123.28
199.265	9129.06
199.34	9162.71
199.415	9278.58
199.49	9354.29
199.565	9387.8
199.64	9472.2
199.715	9457.89
199.79	9482.93
199.865	9506.19
199.94	9495.79
200.015	9600.06
200.09	9621.97
200.165	9641.38
200.24	9655.78
200.315	9789.92
200.39	9844.25
200.464	9864.91
200.539	9870.5
200.614	9932.24
200.689	10012.97
200.764	10037.11
200.839	10097.77
200.914	10115.01
200.989	10080.41
201.063	10127.48
201.138	10070.82
201.213	10071.35
201.288	10002.86
201.363	10016.83
201.438	10013.75
201.512	10072.34
201.587	10013.33
201.662	10026.38
201.737	10068.29
201.812	10103.89
201.886	9994.99
201.961	10022.45
202.036	9986.44
202.111	9968.28
202.186	9861.5
202.26	9796.71
202.335	9720.89
202.41	9701.87
202.485	9643.32
202.559	9579.37
202.634	9485.56
202.709	9516.37
202.784	9447.6
202.858	9451.69
202.933	9388.43
203.008	9363.44
203.082	9298.63
203.157	9295.84
203.232	9145.55
203.306	9068.92
203.381	8956.48
203.456	8878.02
203.53	8804.79
203.605	8736.09
203.68	8662.09
203.754	8643.72
203.829	8590.34
203.904	8521.87
203.978	8479.41
204.053	8498.81
204.127	8450.55
204.202	8450.21
204.277	8386.08
204.351	8360.67
204.426	8336.27
204.5	8308.07
204.575	8195.1
204.65	8225.96
204.724	8195.72
204.799	8221.63
204.873	8213.11
204.948	8210.7
205.022	8170.89
205.097	8138.63
205.171	8186.06
205.246	8210.84
205.32	8209.59
205.395	8213.25
205.469	8183.78
205.544	8201.25
205.618	8139.19
205.693	8185.09
205.767	8141.12
205.842	8213.44
205.916	8194.83
205.991	8160.96
206.065	8181.88
206.14	8232.3
206.214	8221.76
206.289	8198.32
206.363	8245.32
206.438	8252.73
206.512	8270.63
206.586	8332.83
206.661	8356.7
206.735	8276.5
206.81	8277.8
206.884	8328.36
206.958	8284.69
207.033	8341.81
207.107	8368.53
207.181	8478.13
207.256	8448.77
207.33	8514.83
207.405	8554.13
207.479	8622.17
207.553	8648.24
207.628	8593.37
207.702	8626.42
207.776	8596
207.851	8604.95
207.925	8655.94
207.999	8641.55
208.073	8637.75
208.148	8649.59
208.222	8610.17
208.296	8722.9
208.371	8781.8
208.445	8816.9
208.519	8916.51
208.593	8958.09
208.668	8940.57
208.742	8947.84
208.816	8966.22
208.89	9010.91
208.965	9011.97
209.039	9036.38
209.113	9089.14
209.187	9160.33
209.261	9151.09
209.336	9220.41
209.41	9288.83
209.484	9281.41
209.558	9360.34
209.632	9406.26
209.707	9446.13
209.781	9523.26
209.855	9577.3
209.929	9637.25
210.003	9652.75
210.077	9648.08
210.151	9808.24
210.226	9926.32
210.3	10019.71
210.374	10093.19
210.448	10106.87
210.522	10143.01
210.596	10180.1
210.67	10212.85
210.744	10371.11
210.818	10487.55
210.892	10555.34
210.966	10537.8
211.041	10601.06
211.115	10585.36
211.189	10666.1
211.263	10715.96
211.337	10733.79
211.411	10777.73
211.485	10754.36
211.559	10795.45
211.633	10803.73
211.707	10691.15
211.781	10721.04
211.855	10593.16
211.929	10567.05
212.003	10503.53
212.077	10528.69
212.151	10570.47
212.225	10601.4
212.299	10563.61
212.373	10521.36
212.447	10503.87
212.52	10600.72
212.594	10604.28
212.668	10635.55
212.742	10586.55
212.816	10566.07
212.89	10545.98
212.964	10538.12
213.038	10542.99
213.112	10589.01
213.186	10635.4
213.26	10563.94
213.333	10399.71
213.407	10411.9
213.481	10411.61
213.555	10441.27
213.629	10394
213.703	10325.43
213.777	10316.08
213.85	10245.4
213.924	10356.86
213.998	10355.37
214.072	10320.81
214.146	10265.84
214.219	10248.16
214.293	10214.01
214.367	10204.81
214.441	10225.43
214.515	10172.86
214.588	10079.31
214.662	9939.39
214.736	9854.14
214.81	9870.75
214.883	9887.69
214.957	9837.33
215.031	9776.68
215.105	9687.94
215.178	9621.96
215.252	9578.29
215.326	9472.05
215.4	9378.53
215.473	9184.03
215.547	9091.94
215.621	9013.18
215.694	9004.51
215.768	8905.48
215.842	8846.23
215.915	8775.98
215.989	8660.76
216.063	8603.61
216.136	8581.42
216.21	8559.48
216.284	8567.13
216.357	8535.61
216.431	8487.63
216.504	8479.69
216.578	8539.23
216.652	8548.56
216.725	8525.36
216.799	8533.5
216.873	8512.57
216.946	8521.76
217.02	8480.26
217.093	8445.38
217.167	8352.09
217.24	8268.25
217.314	8230.74
217.387	8179.68
217.461	8130.13
217.535	8147.98
217.608	8085.2
217.682	8054.31
217.755	8060.9
217.829	7998.64
217.902	7983.01
217.976	7966.7
218.049	7917.89
218.123	7835.59
218.196	7830.59
218.27	7793.7
218.343	7716.09
218.417	7717.96
218.49	7692.72
218.563	7742.25
218.637	7753.6
218.71	7825.17
218.784	7848.22
218.857	7883.89
218.931	7905.52
219.004	7919.42
219.077	7944.59
219.151	7961.9
219.224	7954.83
219.298	7949.59
219.371	7994.81
219.444	7957.26
219.518	7964.71
219.591	7982.45
219.665	8089.12
219.738	8102.11
219.811	8083.69
219.885	8129.2
219.958	8157.54
220.031	8160.71
220.105	8181.02
220.178	8184.29
220.251	8159.31
220.325	8188.14
220.398	8205.32
220.471	8230.28
220.544	8266.41
220.618	8243.6
220.691	8270.82
220.764	8284.97
220.838	8320.82
220.911	8307.1
220.984	8391.57
221.057	8433.24
221.131	8461.38
221.204	8359.95
221.277	8438.16
221.35	8563.04
221.424	8561.26
221.497	8572.71
221.57	8594.45
221.643	8624.15
221.716	8675.18
221.79	8679.17
221.863	8691.06
221.936	8697.56
222.009	8714.44
222.082	8738.42
222.155	8742.7
222.229	8804.37
222.302	8834.4
222.375	8839.16
222.448	8886.09
222.521	8887.39
222.594	8879.89
222.667	8856.55
222.74	8913.58
222.814	8901.54
222.887	8882.61
222.96	8934.41
223.033	8977.22
223.106	9006.04
223.179	9034.5
223.252	9046.78
223.325	9076.09
223.398	9088.37
223.471	9119.8
223.544	9141.12
223.617	9159.33
223.69	9183.44
223.763	9149.54
223.837	9180.26
223.91	9201.11
223.983	9146.43
224.056	9114.95
224.129	9145.04
224.202	9201.87
224.275	9192.96
224.348	9165.47
224.42	9131.38
224.493	9072.75
224.566	9046.7
224.639	9063.02
224.712	9034.27
224.785	9023.96
224.858	9012.5
224.931	8987.66
225.004	8947.9
225.077	8940.82
225.15	8849.1
225.223	8847.85
225.296	8931.94
225.369	8869.9
225.442	8842.22
225.514	8864.11
225.587	8883.07
225.66	8880.71
225.733	8876.14
225.806	8889.48
225.879	8880.04
225.952	8857.19
226.025	8908.93
226.097	8956.32
226.17	8957.96
226.243	8892.8
226.316	8878.3
226.389	8888.08
226.461	8907.05
226.534	8927.21
226.607	8917.39
226.68	9005.46
226.753	8999.01
226.825	8909.47
226.898	8965.4
226.971	8971.13
227.044	8992.64
227.117	8999.19
227.189	9020.23
227.262	9053.36
227.335	9073.54
227.407	9067.57
227.48	9092.93
227.553	9103.33
227.626	9084.26
227.698	9084.31
227.771	9123.42
227.844	9105.32
227.916	9124.53
227.989	9093.77
228.062	9089.78
228.134	9178.52
228.207	9174.86
228.28	9167.31
228.352	9182.38
228.425	9191.62
228.498	9233.37
228.57	9209.2
228.643	9268.73
228.716	9271.18
228.788	9263.43
228.861	9252.69
228.934	9314.17
229.006	9323.12
229.079	9324.71
229.151	9316.77
229.224	9284.57
229.296	9314.32
229.369	9419.03
229.442	9470.72
229.514	9451.03
229.587	9496.82
229.659	9422.22
229.732	9431.71
229.804	9472.44
229.877	9558.38
229.949	9594.55
230.022	9647.4
230.094	9650.63
230.167	9635.41
230.239	9589.33
230.312	9577.72
230.384	9648.68
230.457	9653.31
230.529	9670.3
230.602	9675.12
230.674	9682.63
230.747	9729.28
230.819	9754.27
230.892	9634.01
230.964	9627.94
231.037	9656.1
231.109	9643.82
231.181	9686.33
231.254	9650.51
231.326	9639.63
231.399	9609.61
231.471	9576.85
231.544	9494.77
231.616	9537.62
231.688	9551.25
231.761	9542.59
231.833	9525.21
231.905	9435.23
231.978	9428.88
232.05	9408.22
232.122	9408.94
232.195	9385.92
232.267	9423.35
232.339	9403.94
232.412	9470.95
232.484	9453.13
232.556	9428.1
232.629	9500.75
232.701	9515.06
232.773	9535.66
232.846	9521.75
232.918	9528.54
232.99	9547.9
233.062	9599.05
233.135	9614.08
233.207	9572.8
233.279	9621.18
233.351	9661.29
233.424	9668.71
233.496	9642.18
233.568	9727.09
233.64	9684.86
233.713	9694.4
233.785	9682.64
233.857	9700.65
233.929	9648.22
234.001	9718.71
234.074	9784.33
234.146	9714.19
234.218	9710.96
234.29	9706.77
234.362	9694.01
234.434	9647.72
234.507	9607.41
234.579	9550.05
234.651	9530.6
234.723	9569.13
234.795	9576.59
234.867	9569.61
234.939	9623.6
235.012	9644.83
235.084	9644.98
235.156	9687.35
235.228	9675.41
235.3	9664.96
235.372	9667.8
235.444	9730.35
235.516	9641.07
235.588	9655.96
235.66	9663.71
235.732	9639
235.804	9841.21
235.876	9892.78
235.948	9956.32
236.02	9975.63
236.092	9988.77
236.164	10000.04
236.236	9988.67
236.308	9995.32
236.38	10024.51
236.452	10005.72
236.524	10028.12
236.596	10094.58
236.668	10131.96
236.74	10157.1
236.812	10183.84
236.884	10223.25
236.956	10230.47
237.028	10218.67
237.1	10197.38
237.172	10280.5
237.244	10360.08
237.316	10241.22
237.388	10217.76
237.46	10198.1
237.532	10256.3
237.604	10244.6
237.675	10325.06
237.747	10379.41
237.819	10369.97
237.891	10373.05
237.963	10366.02
238.035	10358.41
238.107	10245.99
238.178	10309.22
238.25	10317.4
238.322	10413.02
238.394	10363.54
238.466	10368.89
238.538	10423.36
238.609	10463.44
238.681	10399.16
238.753	10377.72
238.825	10394.2
238.897	10425.8
238.968	10508.45
239.04	10498.91
239.112	10623.25
239.184	10575.79
239.255	10572.99
239.327	10601.41
239.399	10620.06
239.471	10671.8
239.542	10709.67
239.614	10782.85
239.686	10693.66
239.758	10748.2
239.829	10712.92
239.901	10784.56
239.973	10801.42
240.044	10832.36
240.116	10851.01
240.188	10865.12
240.259	10882.13
240.331	10870.81
240.403	10921.54
240.474	10868.33
240.546	10852.63
240.618	10784.25
240.689	10783.81
240.761	10798.32
240.833	10874.46
240.904	10879.81
240.976	10883.32
241.048	10900.24
241.119	10938.8
241.191	10988.76
241.262	11063.33
241.334	11060.96
241.405	11064.24
241.477	11069.88
241.549	11076.87
241.62	11099.66
241.692	11154.11
241.763	11216
241.835	11238.31
241.906	11246.12
241.978	11221.4
242.049	11295.42
242.121	11362.4
242.192	11438.26
242.264	11406.12
242.335	11355.61
242.407	11401.3
242.478	11397.49
242.55	11415.18
242.621	11396.04
242.693	11391.17
242.764	11370.88
242.836	11373.68
242.907	11409.05
242.979	11439.9
243.05	11465.78
243.122	11493.88
243.193	11490.94
243.264	11413.82
243.336	11418.98
243.407	11456.53
243.479	11533.64
243.55	11551.62
243.622	11569.31
243.693	11569.31
243.764	11641.79
243.836	11622.61
243.907	11606.85
243.978	11617.98
244.05	11653.31
244.121	11605.03
244.192	11647
244.264	11597.84
244.335	11618.13
244.407	11566.32
244.478	11582.52
244.549	11579.62
244.62	11535.28
244.692	11538.08
244.763	11588.3
244.834	11578.95
244.906	11554.6
244.977	11582.76
245.048	11633.32
245.119	11610.38
245.191	11583.97
245.262	11518.42
245.333	11597.07
245.405	11621.89
245.476	11657.65
245.547	11672.5
245.618	11730.62
245.689	11745.66
245.761	11784.6
245.832	11783.54
245.903	11832.66
245.974	11862.11
246.045	11868.71
246.117	11951.23
246.188	11934.51
246.259	11917.54
246.33	11935.32
246.401	11955.42
246.473	11916.14
246.544	11899.56
246.615	11955.23
246.686	11962.84
246.757	12048.3
246.828	12021.84
246.899	12089.9
246.97	12055.58
247.042	12038.57
247.113	12079.73
247.184	12167.04
247.255	12160.19
247.326	12188.34
247.397	12198.56
247.468	12203.96
247.539	12222.47
247.61	12178.75
247.681	12224.25
247.752	12280.4
247.823	12254.42
247.894	12268.11
247.965	12238.52
248.037	12227.29
248.108	12173.2
248.179	12183.08
248.25	12167.22
248.321	12200.58
248.392	12153.39
248.463	12241.21
248.534	12240.63
248.605	12261.31
248.675	12236.63
248.746	12267.38
248.817	12281.99
248.888	12297.65
248.959	12242.9
249.03	12265.31
249.101	12275.68
249.172	12260.4
249.243	12185.06
249.314	12253.27
249.385	12256.69
249.456	12296.16
249.527	12286.57
249.598	12314.67
249.669	12312.16
249.739	12328.99
249.81	12341.28
249.881	12303.59
249.952	12288.98
250.023	12292.88
250.094	12241.35
250.165	12216.53
250.235	12205.39
250.306	12213.35
250.377	12175.94
250.448	12210.02
250.519	12138.54
250.59	12195.03
250.66	12195.18
250.731	12270.66
250.802	12269.07
250.873	12293.31
250.944	12306.95
251.014	12307.29
251.085	12398.06
251.156	12429.35
251.227	12481.6
251.297	12536.7
251.368	12593.05
251.439	12634.6
251.51	12687.82
251.58	12676.59
251.651	12671.53
251.722	12727.35
251.792	12679.05
251.863	12684.06
251.934	12749.57
252.005	12867.67
252.075	12878.28
252.146	12926.62
252.217	12976.9
252.287	13015.08
252.358	13017.69
252.429	13098.14
252.499	13085.42
252.57	13099.11
252.641	13144.56
252.711	13149.29
252.782	13103.4
252.852	13173.63
252.923	13171.22
252.994	13179.56
253.064	13227.48
253.135	13197.73
253.205	13174.74
253.276	13253.12
253.347	13325.09
253.417	13295.25
253.488	13274.33
253.558	13256.78
253.629	13260.25
253.699	13271.29
253.77	13307.16
253.841	13299.4
253.911	13307.69
253.982	13333.19
254.052	13355.89
254.123	13362.26
254.193	13364.86
254.264	13502.53
254.334	13469.8
254.405	13443.67
254.475	13415.33
254.546	13423.71
254.616	13493.03
254.687	13530.92
254.757	13548.86
254.827	13542.35
254.898	13570.07
254.968	13586.84
255.039	13575.32
255.109	13612.1
255.18	13576.19
255.25	13498.48
255.321	13530.64
255.391	13482.38
255.461	13565.73
255.532	13480.69
255.602	13476.5
255.673	13418.22
255.743	13380.72
255.813	13311.01
255.884	13356.62
255.954	13396.1
256.024	13459.92
256.095	13467.15
256.165	13425.17
256.235	13448.69
256.306	13438.08
256.376	13487.01
256.446	13521.48
256.517	13555.85
256.587	13590.56
256.657	13617.7
256.728	13644.41
256.798	13657.28
256.868	13662.92
256.938	13629.08
257.009	13683.12
257.079	13711.41
257.149	13814.67
257.219	13749.11
257.29	13785.51
257.36	13730.16
257.43	13765.98
257.5	13699.46
257.571	13689.91
257.641	13725.78
257.711	13691.7
257.781	13724.77
257.852	13741.4
257.922	13679.45
257.992	13684.66
258.062	13687.89
258.132	13727.51
258.202	13732.24
258.273	13746.41
258.343	13824.45
258.413	13813.03
258.483	13810.23
258.553	13781.89
258.623	13756.73
258.693	13796.4
258.764	13867.74
258.834	13944.49
258.904	13960.49
258.974	13956.35
259.044	13967.58
259.114	13997.71
259.184	14024.7
259.254	14032.08
259.324	13975.53
259.394	14030.87
259.464	14106.46
259.535	14114.75
259.605	14110.03
259.675	14100.53
259.745	14134.85
259.815	14102.7
259.885	14101.69
259.955	14220.12
260.025	14213.9
260.095	14222.43
260.165	14242.15
260.235	14304.57
260.305	14285.1
260.375	14246.34
260.445	14337.11
260.515	14404.16
260.585	14451.5
260.655	14465.19
260.725	14507.23
260.795	14548.78
260.865	14609.85
260.934	14584.89
261.004	14615.49
261.074	14616.84
261.144	14680.77
261.214	14715.62
261.284	14724.58
261.354	14766.47
261.424	14721.07
261.494	14788.99
261.564	14794.44
261.634	14824.13
261.703	14751.83
261.773	14780.03
261.843	14825.39
261.913	14812.13
261.983	14746.77
262.053	14766.05
262.123	14765.28
262.192	14727.34
262.262	14766.05
262.332	14718.28
262.402	14749.03
262.472	14751.2
262.541	14698.99
262.611	14748.64
262.681	14724.59
262.751	14763.3
262.821	14764.7
262.89	14729.56
262.96	14759.3
263.03	14843.79
263.1	14861.92
263.169	14882.36
263.239	14914.51
263.309	14981.65
263.379	15012.89
263.448	15035.16
263.518	15055.45
263.588	15066.2
263.657	15137.45
263.727	15173.94
263.797	15196.06
263.867	15190.13
263.936	15151.28
264.006	15212.89
264.076	15203.34
264.145	15204.74
264.215	15181.12
264.285	15228.46
264.354	15196.93
264.424	15180.54
264.494	15129.45
264.563	15125.69
264.633	15211.2
264.702	15226.62
264.772	15167.72
264.842	15168.98
264.911	15208.26
264.981	15166.52
265.05	15177.8
265.12	15177.13
265.19	15193.85
265.259	15231.06
265.329	15266.97
265.398	15296.28
265.468	15395.29
265.537	15387.24
265.607	15418.76
265.676	15472.46
265.746	15490.29
265.815	15547.22
265.885	15551.75
265.955	15535.36
266.024	15542.01
266.094	15475.83
266.163	15541.82
266.232	15606.79
266.302	15614.98
266.371	15644.77
266.441	15678.51
266.51	15730.52
266.58	15728.45
266.649	15705.46
266.719	15763.58
266.788	15789.66
266.858	15863.5
266.927	15786.33
266.996	15817.28
267.066	15848.9
267.135	15816.7
267.205	15868.85
267.274	15885.24
267.343	15952.96
267.413	15975.66
267.482	16037.21
267.552	16102.52
267.621	16055.82
267.69	16009.07
267.76	16032.3
267.829	16049.89
267.898	16068.69
267.968	16046.76
268.037	16089.32
268.106	16142
268.176	16103.3
268.245	16114.77
268.314	16106.28
268.384	16176.13
268.453	16199.98
268.522	16227.02
268.592	16288.81
268.661	16263.8
268.73	16296.19
268.799	16273.44
268.869	16359.18
268.938	16307.76
269.007	16294.31
269.076	16313.06
269.146	16372.39
269.215	16407.48
269.284	16486.47
269.353	16475.14
269.422	16486.08
269.492	16480.54
269.561	16400.24
269.63	16440.34
269.699	16434.95
269.768	16453.16
269.838	16475.91
269.907	16514.42
269.976	16488.06
270.045	16431.62
270.114	16476.49
270.183	16484
270.253	16526.66
270.322	16473.4
270.391	16505.36
270.46	16572.93
270.529	16622.86
270.598	16662.86
270.667	16670.52
270.736	16636.4
270.806	16674.19
270.875	16733.61
270.944	16749.23
271.013	16877.14
271.082	16902.73
271.151	16946.3
271.22	16911.55
271.289	16918.68
271.358	16924.22
271.427	16958.35
271.496	16988.95
271.565	16982.45
271.634	17009.82
271.703	17129.63
271.772	17194.02
271.841	17209.68
271.91	17178.98
271.979	17197.73
272.048	17170.35
272.117	17215.99
272.186	17215.94
272.255	17271.17
272.324	17311.41
272.393	17347.8
272.462	17335.17
272.531	17357.15
272.6	17363.56
272.669	17425.35
272.738	17434.55
272.807	17473.63
272.876	17451.42
272.945	17598.55
273.013	17659.17
273.082	17716.81
273.151	17621.49
273.22	17657.88
273.289	17677.92
273.358	17769.2
273.427	17772.24
273.496	17827.61
273.564	17864.47
273.633	17929.87
273.702	17913.34
273.771	17923.46
273.84	17959.46
273.909	18002.69
273.977	18033.24
274.046	18041.05
274.115	18106.59
274.184	18111.41
274.253	18124.51
274.322	18212.13
274.39	18146.25
274.459	18140.71
274.528	18096.95
274.597	18122.98
274.665	18150.45
274.734	18223.02
274.803	18223.12
274.872	18260.71
274.94	18253.91
275.009	18399.5
275.078	18389.77
275.147	18426.49
275.215	18461.43
275.284	18527.4
275.353	18540.89
275.421	18515.25
275.49	18616.16
275.559	18624.31
275.627	18645.66
275.696	18671.82
275.765	18711.77
275.833	18733.32
275.902	18779.53
275.971	18862.08
276.039	18955.62
276.108	19014.84
276.177	19049.01
276.245	19058.12
276.314	19085.97
276.383	19143.51
276.451	19049.53
276.52	19100.9
276.588	19181.67
276.657	19235.59
276.725	19235.74
276.794	19280.6
276.863	19356.69
276.931	19318.72
277	19381.32
277.068	19456.83
277.137	19560.88
277.205	19597.89
277.274	19711.71
277.342	19784.34
277.411	19759.76
277.48	19760.29
277.548	19762.46
277.617	19811.95
277.685	19841.54
277.754	19898.79
277.822	19927.42
277.89	20024.14
277.959	20049.06
278.027	20035.95
278.096	20048.96
278.164	20183.09
278.233	20202.75
278.301	20220.44
278.37	20286.46
278.438	20295.23
278.507	20349.98
278.575	20309.3
278.643	20332.92
278.712	20305.69
278.78	20300.68
278.849	20383.95
278.917	20456.92
278.985	20494.55
279.054	20540.68
279.122	20622.27
279.191	20655.14
279.259	20684.73
279.327	20647.33
279.396	20746.42
279.464	20766.18
279.532	20831.34
279.601	20870.58
279.669	20894.77
279.737	20975.07
279.806	21029
279.874	21105.68
279.942	21132.43
280.011	21155.9
280.079	21223.23
280.147	21321.51
280.215	21387.15
280.284	21411.59
280.352	21403.2
280.42	21463.11
280.488	21469.67
280.557	21487.36
280.625	21543.37
280.693	21590.89
280.761	21653.84
280.83	21634.12
280.898	21725.8
280.966	21708.3
281.034	21634.88
281.102	21639.17
281.171	21659.66
281.239	21732.4
281.307	21742.67
281.375	21758.92
281.443	21889.89
281.512	21926.05
281.58	21987.71
281.648	21974.41
281.716	22015.52
281.784	22059.82
281.852	22078.62
281.92	22126.87
281.989	22204.92
282.057	22192.1
282.125	22369.27
282.193	22401.09
282.261	22448.72
282.329	22479.04
282.397	22534.77
282.465	22592.95
282.533	22684.1
282.601	22697.07
282.67	22656.77
282.738	22678.89
282.806	22760.66
282.874	22758.15
282.942	22819.1
283.01	22845.19
283.078	22917.8
283.146	22964.32
283.214	23043.25
283.282	23098.36
283.35	23182.51
283.418	23213.14
283.486	23271.76
283.554	23183.73
283.622	23226.69
283.69	23260.3
283.758	23286.82
283.826	23358.57
283.894	23420.54
283.962	23528
284.03	23608.86
284.098	23667.3
284.165	23689.82
284.233	23733.9
284.301	23758.93
284.369	23767.18
284.437	23782.18
284.505	23813.24
284.573	23904.92
284.641	23914.18
284.709	23991.41
284.777	23972.6
284.845	24034.16
284.912	24097.24
284.98	24157.82
285.048	24195.83
285.116	24272.76
285.184	24359.01
285.252	24392.2
285.319	24402.24
285.387	24419.95
285.455	24424.53
285.523	24492.4
285.591	24536
285.659	24583.23
285.726	24670.27
285.794	24669.64
285.862	24704.28
285.93	24746.01
285.997	24771.39
286.065	24805.44
286.133	24806.7
286.201	24848.14
286.269	24846.79
286.336	24860.39
286.404	24886.44
286.472	24955.5
286.539	24928.24
286.607	24926.55
286.675	24972.59
286.743	25038.35
286.81	25067.94
286.878	25156.34
286.946	25170.77
287.013	25216.56
287.081	25246.19
287.149	25240.11
287.216	25356.51
287.284	25394.73
287.352	25433.19
287.419	25471.85
287.487	25564.91
287.555	25630.13
287.622	25677.95
287.69	25739.45
287.758	25827.78
287.825	25859.1
287.893	25861.61
287.96	25928.68
288.028	26009.54
288.096	26057.04
288.163	26117.2
288.231	26119.13
288.298	26162.59
288.366	26263.5
288.433	26302.79
288.501	26329.14
288.569	26378.39
288.636	26408.13
288.704	26495.35
288.771	26570.81
288.839	26584.67
288.906	26606.4
288.974	26683.12
289.041	26715.13
289.109	26729.85
289.176	26805.17
289.244	26867.94
289.311	26957.96
289.379	27050.83
289.446	27098.89
289.514	27148.36
289.581	27190.91
289.649	27259.06
289.716	27308.28
289.783	27325.44
289.851	27437.88
289.918	27490.09
289.986	27575.4
290.053	27623.81
290.121	27666.73
290.188	27721.28
290.255	27863.44
290.323	27888.37
290.39	27910.99
290.458	27973.59
290.525	28068.92
290.592	28090.38
290.66	28150.69
290.727	28171.9
290.794	28251.46
290.862	28303.33
290.929	28355.19
290.996	28398.49
291.064	28471.04
291.131	28559.81
291.198	28650.75
291.266	28689.86
291.333	28747.41
291.4	28808.05
291.468	28906.07
291.535	28931.45
291.602	28984.54
291.669	29003.5
291.737	29070.39
291.804	29118.51
291.871	29225.61
291.938	29291.24
292.006	29438.28
292.073	29508.88
292.14	29602.46
292.207	29621.18
292.275	29668.09
292.342	29748.1
292.409	29883.18
292.476	29995.73
292.543	30012.22
292.611	30056.06
292.678	30153.6
292.745	30270.52
292.812	30348.44
292.879	30380.18
292.946	30442.34
293.014	30526.73
293.081	30598.89
293.148	30686.55
293.215	30778.61
293.282	30792.3
293.349	30870.14
293.416	30833.1
293.484	30926.27
293.551	30999.95
293.618	31105.52
293.685	31234.8
293.752	31258.56
293.819	31292.46
293.886	31309.02
293.953	31372.09
294.02	31448.69
294.087	31507.97
294.154	31523.17
294.221	31609.93
294.288	31661.73
294.356	31764.33
294.423	31836.5
294.49	31850.06
294.557	31943.78
294.624	31952.69
294.691	32081.36
294.758	32122.58
294.825	32210.34
294.892	32227.2
294.959	32280.63
295.026	32345.51
295.093	32366.54
295.16	32425.57
295.226	32459.68
295.293	32587.67
295.36	32650.45
295.427	32736.91
295.494	32825.7
295.561	32913.63
295.628	33043.84
295.695	33150.45
295.762	33203.96
295.829	33276.28
295.896	33389.47
295.963	33462.77
296.03	33557.01
296.096	33623.04
296.163	33714.85
296.23	33808.57
296.297	33906.18
296.364	33956.54
296.431	34031.4
296.498	34069.6
296.564	34196.55
296.631	34269.17
296.698	34267.72
296.765	34385.54
296.832	34406.93
296.899	34424.09
296.965	34535.29
297.032	34508.94
297.099	34604.32
297.166	34691.76
297.233	34741.57
297.299	34764.46
297.366	34816.41
297.433	34891.97
297.5	34964.59
297.566	35024.07
297.633	35067.34
297.7	35129.38
297.767	35170.84
297.833	35231.34
297.9	35301.48
297.967	35298.32
298.033	35386.57
298.1	35533.85
298.167	35561.65
298.234	35627.09
298.3	35699.38
298.367	35725.78
298.434	35796.43
298.5	35814
298.567	35842.44
298.634	35886.93
298.7	36001.34
298.767	36067.11
298.834	36138.88
298.9	36170.86
298.967	36198.96
299.033	36287.01
299.1	36384.82
299.167	36476.72
299.233	36515.16
299.3	36604.71
299.366	36707
299.433	36809.45
299.5	36765.56
299.566	36820.7
299.633	36927.93
299.699	37005.17
299.766	37050.89
299.832	37111.78
299.899	37202.19
299.965	37294.76
300.032	37329.76
300.099	37390.89
300.165	37446.63
300.232	37491.93
300.298	37540.28
300.365	37634.48
300.431	37679.2
300.498	37703.04
300.564	37775.54
300.631	37865.71
300.697	37951.04
300.763	38003.68
300.83	38033.4
300.896	38121.09
300.963	38204.57
301.029	38264.85
301.096	38341.01
301.162	38430.17
301.229	38468.2
301.295	38459.65
301.361	38505.79
301.428	38567.99
301.494	38583.92
301.561	38640.26
301.627	38694.51
301.693	38760.42
301.76	38831.1
301.826	38874.87
301.892	38961
301.959	39044.65
302.025	39073.65
302.092	39095.03
302.158	39175.57
302.224	39232.12
302.291	39271.22
302.357	39303.58
302.423	39321.16
302.49	39320.39
302.556	39394.63
302.622	39447.68
302.688	39548.68
302.755	39652.67
302.821	39726.31
302.887	39805.54
302.954	39855.69
303.02	39934.93
303.086	39997.9
303.152	40019.87
303.219	40041.49
303.285	40096.45
303.351	40152
303.417	40204.52
303.483	40243.88
303.55	40258.7
303.616	40298.7
303.682	40347.34
303.748	40386.5
303.815	40490.51
303.881	40592.26
303.947	40612.58
304.013	40665.5
304.079	40685.38
304.145	40658.26
304.212	40715.16
304.278	40724.88
304.344	40754.63
304.41	40761.62
304.476	40784.95
304.542	40814.84
304.608	40883.61
304.674	40881.76
304.741	40894.64
304.807	40945.19
304.873	40993.16
304.939	41088.33
305.005	41077.83
305.071	41113.4
305.137	41148.44
305.203	41100.13
305.269	41126.57
305.335	41195.8
305.401	41221.66
305.467	41250.92
305.533	41333.45
305.599	41388.43
305.666	41465.28
305.732	41504.21
305.798	41585.44
305.864	41709.72
305.93	41768.68
305.996	41809.66
306.062	41850.4
306.128	41892.79
306.194	41902.81
306.259	41948.51
306.325	41968.93
306.391	42049.24
306.457	42110.68
306.523	42167.22
306.589	42297.38
306.655	42316.24
306.721	42290.96
306.787	42292.81
306.853	42377.8
306.919	42371.53
306.985	42386.36
307.051	42414.41
307.117	42439.84
307.183	42458.36
307.248	42401.85
307.314	42460.84
307.38	42510.25
307.446	42583.57
307.512	42595.49
307.578	42642.94
307.644	42654.76
307.709	42690.84
307.775	42712.09
307.841	42736.7
307.907	42785.91
307.973	42756.48
308.039	42807.79
308.104	42885.88
308.17	42938
308.236	42939.17
308.302	42980.94
308.368	42994.41
308.433	43027.62
308.499	43050.04
308.565	43056.7
308.631	43112.62
308.696	43067.79
308.762	43065.4
308.828	43085.1
308.894	43059.38
308.959	43031.71
309.025	43052.77
309.091	43071.84
309.156	43090.9
309.222	43143.04
309.288	43134.38
309.354	43109.88
309.419	43135.95
309.485	43120.63
309.551	43174.23
309.616	43172.09
309.682	43192.07
309.748	43198.88
309.813	43210.8
309.879	43230.74
309.945	43220.77
310.01	43240.47
310.076	43300.58
310.141	43317.21
310.207	43305.88
310.273	43364.33
310.338	43418.07
310.404	43410.53
310.469	43408.48
310.535	43421.13
310.601	43390.34
310.666	43454.36
310.732	43536.8
310.797	43527.56
310.863	43534.61
310.928	43548.67
310.994	43593.9
311.059	43619.3
311.125	43649.06
311.191	43736.69
311.256	43730.08
311.322	43793.26
311.387	43761.98
311.453	44519.44
311.518	44523.82
311.584	44549.4
311.649	44602.87
311.715	44617.56
311.78	44659.19
311.846	44673.98
311.911	44724.38
311.976	44771.08
312.042	44757.41
312.107	44725.93
312.173	44725.98
312.238	44745.73
312.304	44765.29
312.369	44777.45
312.434	44780.13
312.5	44799.88
312.565	44721.39
312.631	44766.97
312.696	44778.89
312.761	44818.09
312.827	44098.88
312.892	44206.32
312.958	44242.28
313.023	44265.35
313.088	44307.09
313.154	44312.54
313.219	44317.06
313.284	44322.56
313.35	44333.46
313.415	44332.15
313.48	44357.39
313.546	44412.57
313.611	44468.13
313.676	44467.4
313.741	44454.17
313.807	44511.15
313.872	44555.43
313.937	44616.97
314.003	44693.13
314.068	44736.35
314.133	44797.95
314.198	44787.88
314.264	44761.59
314.329	44764.81
314.394	44790.12
314.459	44800.04
314.525	44885.06
314.59	44910.5
314.655	44910.99
314.72	44968.95
314.785	45010.75
314.851	45025.49
314.916	44997.22
314.981	44986.71
315.046	44984.86
315.111	44984.67
315.176	44974.11
315.242	45012.75
315.307	45037.48
315.372	45002.58
315.437	45000.05
315.502	44997.42
315.567	45076.46
315.632	45047.99
315.698	45077.93
315.763	45082.6
315.828	45081.04
315.893	45093.17
315.958	45105.38
316.023	45095.55
316.088	45039.68
316.153	44982.41
316.218	44969.13
316.283	44933.08
316.348	44892.4
316.413	44907.39
316.479	44870.23
316.544	44775.41
316.609	44679.98
316.674	44551.5
316.739	44439.08
316.804	44323.78
316.869	44192.44
316.934	44045.63
316.999	43931.96
317.064	43747.26
317.129	43587.89
317.194	43446.26
317.259	43247.69
317.324	43045.78
317.389	42857.64
317.454	42703.82
317.518	42564.47
317.583	42459.47
317.648	42338.55
317.713	42188.26
317.778	41952.53
317.843	41828.56
317.908	41669.12
317.973	41485.41
318.038	41339.68
318.103	41165.36
318.168	41007.1
318.233	40862.4
318.297	40649.34
318.362	40491.2
318.427	40305.07
318.492	40179.38
318.557	39962.94
318.622	39816.05
318.687	39689.69
318.751	39510.07
318.816	39343.66
318.881	39166.94
318.946	38918.31
319.011	38709.05
319.075	38496.37
319.14	38308.3
319.205	38082.51
319.27	37899.74
319.335	37684.35
319.399	37480.09
319.464	37312.31
319.529	37063.68
319.594	36845.5
319.658	36663.54
319.723	36433.77
319.788	36260.38
319.853	35979.01
319.917	35810.66
319.982	35554.89
320.047	35334.47
320.112	35151.46
320.176	34898.54
320.241	34691.32
320.306	34492.82
320.37	34264.14
320.435	34073.14
320.5	33885.75
320.564	33659.61
320.629	33411.18
320.694	33211.55
320.758	32982
320.823	32743.65
320.888	32567.84
320.952	32320.88
321.017	32088.81
321.082	31866.62
321.146	31655.41
321.211	31449.42
321.275	31209.2
321.34	30976.24
321.405	30732.69
321.469	30487.97
321.534	30257.28
321.598	29990.42
321.663	29794.18
321.727	29583.28
321.792	29326.6
321.857	29085.79
321.921	28858.55
321.986	28628.34
322.05	28340.55
322.115	28123.24
322.179	27872.37
322.244	27584.27
322.308	27374.01
322.373	27127.9
322.437	26892.53
322.502	26703.8
322.566	26442.93
322.631	26213.06
322.695	25967.45
322.76	25734.12
322.824	25519.66
322.889	25261.06
322.953	25010.37
323.018	24673.21
323.082	24364.22
323.146	24077.9
323.211	23800.19
323.275	23551.45
323.34	23292.11
323.404	23075.52
323.468	22811.01
323.533	22562.7
323.597	22300.99
323.662	22015.57
323.726	21780.54
323.79	21512.85
323.855	21178.97
323.919	20918.53
323.983	20663.55
324.048	20274.84
324.112	20458.55
324.177	19646.37
324.241	18585.38
324.305	17540.11
324.37	16521.31
324.434	15521.59
324.498	15254.78
324.562	14945.29
324.627	14593.14
324.691	14252.97
324.755	13859.02
324.82	13417.06
324.884	12954.25
324.948	12487.19
325.012	11914.11
325.077	11206.58
