Data from 20250701_urea_2M_exp3_MAYP1162681_06-49-52-501.txt Node
Date: Wed Jul 02 06:49:52 BST 2025
User: adleo
Spectrometer: MAYP116268
Trigger mode: 0
Integration Time (sec): 4.000000E0
Scans to average: 1
Electric dark correction enabled: true
Nonlinearity correction enabled: true
Boxcar width: 10
XAxis mode: Wavelengths
Number of Pixels in Spectrum: 2068
>>>>>Begin Spectral Data<<<<<
179.565	3728.88
179.642	3925.15
179.718	4085.27
179.795	4212.14
179.871	4327.34
179.948	4390.82
180.024	4459.74
180.101	4539.52
180.177	4594.9
180.254	4677.48
180.33	4757.42
180.407	5022.75
180.483	5312.19
180.56	5608.97
180.636	5878.27
180.712	5830.18
180.789	5866.78
180.865	5907.53
180.942	5942.59
181.018	5981.45
181.095	6029.98
181.171	6043.95
181.248	6047.88
181.324	6093.2
181.4	6122.14
181.477	6159.63
181.553	6203.56
181.63	6278.1
181.706	6333.41
181.782	6358.11
181.859	6355.38
181.935	6372.04
182.011	6362.97
182.088	6421.64
182.164	6490.25
182.24	6534.77
182.317	6570.24
182.393	6558.53
182.469	6606.49
182.546	6651.44
182.622	6663.82
182.698	6644.52
182.775	6689.18
182.851	6734.94
182.927	6710.45
183.003	6694.9
183.08	6672.28
183.156	6705.85
183.232	6695.47
183.308	6653.17
183.385	6682.16
183.461	6736.05
183.537	6741
183.613	6787.01
183.69	6751.51
183.766	6707.88
183.842	6733.62
183.918	6752.55
183.995	6803.26
184.071	6812.82
184.147	6796.44
184.223	6761.01
184.299	6809.01
184.375	6771.17
184.452	6795.39
184.528	6929.75
184.604	6967.16
184.68	7005.81
184.756	7033.35
184.832	7045.8
184.908	7063.03
184.985	7059
185.061	7009.57
185.137	7035.57
185.213	6992.77
185.289	7000.79
185.365	6980.57
185.441	6979.52
185.517	7023.98
185.593	7005.1
185.669	6999.19
185.745	7030.71
185.822	7083.71
185.898	7054.25
185.974	7090.37
186.05	7060.76
186.126	6981.03
186.202	6959.13
186.278	6951.06
186.354	6913.33
186.43	6933.76
186.506	6929.49
186.582	6928.91
186.658	6947.64
186.734	6882.04
186.81	6890.63
186.886	6902.54
186.962	6939.96
187.038	6923.48
187.114	6899.92
187.19	6934.09
187.266	6903.35
187.341	6907.34
187.417	6884.23
187.493	6884.43
187.569	6891.92
187.645	6878.47
187.721	6834.02
187.797	6860.58
187.873	6871.44
187.949	6849.5
188.025	6827.29
188.101	6836.9
188.176	6852.94
188.252	6841.46
188.328	6869.54
188.404	6872.71
188.48	6849.95
188.556	6832.75
188.632	6836.45
188.707	6838.9
188.783	6825.73
188.859	6805.29
188.935	6766.22
189.011	6793.55
189.086	6770.5
189.162	6739.37
189.238	6724.54
189.314	6719.88
189.39	6700.04
189.465	6678.37
189.541	6736.89
189.617	6690.83
189.693	6673.88
189.768	6690.03
189.844	6772.98
189.92	6747.35
189.996	6775.12
190.071	6822.38
190.147	6817.25
190.223	6841.99
190.298	6814.46
190.374	6766.38
190.45	6814.3
190.526	6844.81
190.601	6824.77
190.677	6829.57
190.753	6928.28
190.828	6943.31
190.904	6992.9
190.98	7048.83
191.055	7090.21
191.131	7063.77
191.207	7134.05
191.282	7168.77
191.358	7128.33
191.433	7078.75
191.509	7117.45
191.585	7106.3
191.66	7105.63
191.736	7137.29
191.811	7108.03
191.887	7162.97
191.963	7248.64
192.038	7260.13
192.114	7258.11
192.189	7272.18
192.265	7262.97
192.34	7180.64
192.416	7172.04
192.491	7161.32
192.567	7166.47
192.642	7167.57
192.718	7166.76
192.793	7125.43
192.869	7112.07
192.944	7133.44
193.02	7156.76
193.095	7171.94
193.171	7192.36
193.246	7189.09
193.322	7172.13
193.397	7175.64
193.473	7129.97
193.548	7063.93
193.624	7084.79
193.699	7080.8
193.775	7134.5
193.85	7134.41
193.925	7166.08
194.001	7169.54
194.076	7143.73
194.152	7107.2
194.227	7084.13
194.302	7052.24
194.378	7061.8
194.453	7053.78
194.529	7083.29
194.604	7034.28
194.679	7011.94
194.755	6952.24
194.83	6995.28
194.905	6991.39
194.981	7021.32
195.056	6995.48
195.131	7020.17
195.207	7015.51
195.282	6983.18
195.357	6919.97
195.433	6981.61
195.508	6946.09
195.583	6969.1
195.659	7013.99
195.734	7034.28
195.809	7032.5
195.884	7065.35
195.96	7069.38
196.035	7121.13
196.11	7112.48
196.185	7150.05
196.261	7166.48
196.336	7268.4
196.411	7219.88
196.486	7235.45
196.561	7211.38
196.637	7242.55
196.712	7296.55
196.787	7298.28
196.862	7356.85
196.937	7390.87
197.013	7402.27
197.088	7432.59
197.163	7507.91
197.238	7570.12
197.313	7570.27
197.388	7612.19
197.464	7709.87
197.539	7745.78
197.614	7722.9
197.689	7766.47
197.764	7824
197.839	7886.6
197.914	7864.47
197.989	7936.66
198.065	7984.32
198.14	8155.78
198.215	8242.22
198.29	8285.54
198.365	8334.46
198.44	8364.33
198.515	8459.23
198.59	8513.94
198.665	8600.88
198.74	8626.69
198.815	8625.63
198.89	8703.19
198.965	8806.93
199.04	8795.71
199.115	8853.12
199.19	8994.46
199.265	8999.94
199.34	9035.56
199.415	9156.73
199.49	9230.98
199.565	9264.73
199.64	9349.13
199.715	9342.72
199.79	9366.84
199.865	9386.29
199.94	9384.08
200.015	9489.78
200.09	9506.68
200.165	9526.18
200.24	9546.75
200.315	9676.06
200.39	9728.12
200.464	9747.48
200.539	9747.48
200.614	9801.94
200.689	9879.29
200.764	9903.48
200.839	9966.69
200.914	9981.09
200.989	9936.62
201.063	9979.77
201.138	9919.95
201.213	9916.53
201.288	9849.87
201.363	9865.09
201.438	9867.21
201.512	9914.54
201.587	9855.39
201.662	9867.09
201.737	9913.91
201.812	9936.45
201.886	9828.66
201.961	9862.68
202.036	9821.66
202.111	9814.63
202.186	9714.79
202.26	9656.17
202.335	9576.89
202.41	9557.39
202.485	9499.81
202.559	9435.96
202.634	9349.92
202.709	9384.47
202.784	9317.78
202.858	9315.42
202.933	9250.67
203.008	9218.51
203.082	9151.6
203.157	9149.09
203.232	9000.12
203.306	8918.2
203.381	8814.69
203.456	8740.32
203.53	8661.66
203.605	8593.7
203.68	8511.76
203.754	8484.06
203.829	8429.09
203.904	8362.46
203.978	8313.89
204.053	8331.61
204.127	8286.63
204.202	8281.24
204.277	8215.72
204.351	8191.85
204.426	8166.1
204.5	8141.23
204.575	8028.09
204.65	8069.62
204.724	8043.39
204.799	8072.13
204.873	8066.06
204.948	8065.39
205.022	8020.1
205.097	7987.03
205.171	8036.9
205.246	8065.1
205.32	8067.21
205.395	8068.03
205.469	8035.4
205.544	8057.34
205.618	7991.05
205.693	8032.33
205.767	7987.31
205.842	8065.54
205.916	8046.83
205.991	8012.83
206.065	8035.1
206.14	8087.19
206.214	8066.87
206.289	8045.46
206.363	8089.23
206.438	8096.31
206.512	8116.08
206.586	8186.44
206.661	8216.14
206.735	8144.41
206.81	8149.32
206.884	8197.31
206.958	8153.79
207.033	8215.14
207.107	8241.47
207.181	8353.26
207.256	8330.69
207.33	8398.37
207.405	8440.27
207.479	8503.39
207.553	8523.64
207.628	8463.49
207.702	8500.19
207.776	8476.37
207.851	8482.62
207.925	8533.03
207.999	8523.6
208.073	8517.73
208.148	8519.99
208.222	8480.81
208.296	8589.17
208.371	8642.19
208.445	8684.16
208.519	8783.71
208.593	8821.68
208.668	8810.85
208.742	8813.59
208.816	8823.17
208.89	8870.93
208.965	8860.38
209.039	8884.84
209.113	8947.13
209.187	9015.56
209.261	9001.22
209.336	9065.19
209.41	9136.98
209.484	9134.28
209.558	9203.8
209.632	9254.44
209.707	9300.81
209.781	9375.19
209.855	9422.53
209.929	9483.82
210.003	9499.47
210.077	9494.32
210.151	9661.12
210.226	9768.74
210.3	9862.9
210.374	9945.18
210.448	9960.54
210.522	10001.3
210.596	10036.7
210.67	10066.56
210.744	10224.47
210.818	10341.09
210.892	10414.17
210.966	10393.17
211.041	10444.91
211.115	10431.03
211.189	10504.02
211.263	10557.54
211.337	10580.23
211.411	10631.06
211.485	10609.38
211.559	10650.42
211.633	10657.3
211.707	10547.86
211.781	10576.53
211.855	10456.42
211.929	10428.25
212.003	10359.77
212.077	10382.66
212.151	10422.8
212.225	10453.15
212.299	10415.03
212.373	10371.96
212.447	10352.45
212.52	10450.01
212.594	10462.54
212.668	10501.08
212.742	10448.85
212.816	10425.87
212.89	10399.81
212.964	10383.66
213.038	10385.16
213.112	10424.38
213.186	10467.97
213.26	10386.84
213.333	10224.12
213.407	10235.72
213.481	10233.99
213.555	10266.15
213.629	10220.08
213.703	10159.43
213.777	10154.17
213.85	10075.6
213.924	10176.74
213.998	10172.6
214.072	10137.56
214.146	10078.64
214.219	10052.05
214.293	10032.69
214.367	10019.34
214.441	10043.62
214.515	10002
214.588	9905.81
214.662	9774.32
214.736	9689.71
214.81	9702.66
214.883	9723.4
214.957	9676.27
215.031	9620.87
215.105	9527.67
215.178	9464.93
215.252	9420.92
215.326	9315.27
215.4	9239.42
215.473	9057.85
215.547	8970.06
215.621	8896.12
215.694	8891.83
215.768	8794.21
215.842	8723.27
215.915	8652.59
215.989	8533.58
216.063	8466.61
216.136	8448.8
216.21	8428.74
216.284	8438.56
216.357	8415.65
216.431	8367.24
216.504	8361.47
216.578	8413.98
216.652	8426.24
216.725	8401.02
216.799	8410.31
216.873	8393.86
216.946	8397.08
217.02	8359.68
217.093	8324.6
217.167	8233.43
217.24	8150.7
217.314	8121.38
217.387	8072.73
217.461	8029.2
217.535	8051.32
217.608	7989.52
217.682	7958.25
217.755	7963.06
217.829	7902.4
217.902	7889.65
217.976	7874.84
218.049	7827.61
218.123	7752.11
218.196	7752.93
218.27	7715.27
218.343	7634.88
218.417	7622.23
218.49	7601.89
218.563	7643.72
218.637	7653.97
218.71	7720.2
218.784	7749.06
218.857	7778.73
218.931	7805.97
219.004	7812.27
219.077	7836.96
219.151	7859.17
219.224	7850.99
219.298	7846.28
219.371	7896.07
219.444	7853.62
219.518	7860.54
219.591	7876.41
219.665	7979.94
219.738	7987.92
219.811	7971.82
219.885	8026.74
219.958	8057.58
220.031	8059.17
220.105	8078.51
220.178	8082.02
220.251	8056.03
220.325	8072.2
220.398	8095.15
220.471	8117.13
220.544	8153.16
220.618	8124.67
220.691	8151.46
220.764	8170.94
220.838	8199.13
220.911	8184.94
220.984	8267.52
221.057	8305.19
221.131	8328.18
221.204	8228.54
221.277	8301.79
221.35	8426.41
221.424	8414.67
221.497	8432.62
221.57	8456.23
221.643	8493.88
221.716	8543.5
221.79	8550.43
221.863	8563.38
221.936	8562.37
222.009	8579.68
222.082	8610.63
222.155	8612.51
222.229	8672.54
222.302	8705.88
222.375	8712.38
222.448	8749.15
222.521	8752.71
222.594	8750.4
222.667	8725.63
222.74	8782.36
222.814	8776.54
222.887	8759.39
222.96	8810.32
223.033	8853.75
223.106	8881.17
223.179	8907.42
223.252	8920.52
223.325	8951.32
223.398	8969.13
223.471	9007.78
223.544	9032.57
223.617	9042.29
223.69	9070.78
223.763	9035.59
223.837	9056.14
223.91	9084.69
223.983	9036.57
224.056	9003.51
224.129	9025.07
224.202	9079.87
224.275	9072.02
224.348	9037.99
224.42	9000.97
224.493	8946.29
224.566	8912.78
224.639	8932.03
224.712	8902.46
224.785	8884.6
224.858	8872.18
224.931	8850.17
225.004	8806.52
225.077	8794.39
225.15	8711.29
225.223	8712.64
225.296	8798.46
225.369	8741.48
225.442	8703.93
225.514	8724.52
225.587	8746.37
225.66	8758.21
225.733	8763.36
225.806	8776.79
225.879	8773.23
225.952	8749.03
226.025	8801.11
226.097	8862.42
226.17	8849.56
226.243	8780.13
226.316	8775.75
226.389	8782.63
226.461	8802.13
226.534	8820.12
226.607	8815.02
226.68	8897.02
226.753	8891.05
226.825	8801.47
226.898	8861.73
226.971	8869.91
227.044	8890.46
227.117	8896.67
227.189	8914.58
227.262	8949.78
227.335	8960.47
227.407	8950.7
227.48	8978.66
227.553	8985.79
227.626	8961.17
227.698	8968.78
227.771	9013.57
227.844	8996.57
227.916	9015.16
227.989	8981.51
228.062	8977.95
228.134	9064.81
228.207	9063.13
228.28	9059.13
228.352	9077.28
228.425	9082.63
228.498	9130.1
228.57	9107.96
228.643	9172.78
228.716	9169.26
228.788	9150.1
228.861	9146.82
228.934	9217.93
229.006	9227.7
229.079	9233.14
229.151	9221.96
229.224	9191.26
229.296	9219.76
229.369	9321.19
229.442	9373.4
229.514	9354.44
229.587	9406.25
229.659	9329.82
229.732	9349.86
229.804	9394.68
229.877	9473.39
229.949	9506.67
230.022	9557.64
230.094	9558.31
230.167	9543.57
230.239	9499.04
230.312	9497.79
230.384	9565.56
230.457	9555.02
230.529	9564.6
230.602	9568.98
230.674	9580.35
230.747	9625.44
230.819	9656.07
230.892	9539.48
230.964	9536.69
231.037	9567.78
231.109	9553.04
231.181	9595.07
231.254	9552.12
231.326	9528.96
231.399	9508.05
231.471	9480.01
231.544	9404.63
231.616	9457.25
231.688	9463.27
231.761	9457.59
231.833	9437.32
231.905	9354.14
231.978	9357.56
232.05	9343.99
232.122	9345.72
232.195	9322.65
232.267	9359.97
232.339	9331.17
232.412	9396.6
232.484	9370.78
232.556	9342.97
232.629	9415.13
232.701	9434.25
232.773	9452.69
232.846	9446.96
232.918	9453.56
232.99	9468.54
233.062	9509.96
233.135	9522.38
233.207	9482.36
233.279	9529.68
233.351	9570.13
233.424	9575.76
233.496	9550.05
233.568	9637.12
233.64	9603.13
233.713	9618.11
233.785	9612.66
233.857	9632.74
233.929	9582.19
234.001	9647.81
234.074	9716.65
234.146	9645.4
234.218	9642.03
234.29	9642.27
234.362	9631.1
234.434	9583.32
234.507	9552.31
234.579	9496.11
234.651	9474.68
234.723	9507.33
234.795	9526.54
234.867	9513.2
234.939	9569.26
235.012	9588.86
235.084	9592.76
235.156	9623.68
235.228	9602.3
235.3	9585.2
235.372	9599.07
235.444	9659.07
235.516	9581.79
235.588	9586.22
235.66	9602.5
235.732	9578.81
235.804	9777.83
235.876	9821.11
235.948	9885.23
236.02	9902.23
236.092	9915.47
236.164	9935.31
236.236	9934.64
236.308	9929.34
236.38	9961.9
236.452	9944.8
236.524	9968.54
236.596	10025.94
236.668	10055.52
236.74	10084.51
236.812	10114.46
236.884	10144.05
236.956	10158.26
237.028	10153.35
237.1	10140.73
237.172	10214.1
237.244	10288.2
237.316	10166.54
237.388	10150.65
237.46	10122.89
237.532	10180.94
237.604	10176.9
237.675	10247.87
237.747	10293.49
237.819	10278.18
237.891	10284.25
237.963	10279.09
238.035	10274.09
238.107	10168.27
238.178	10236.36
238.25	10241.51
238.322	10333.65
238.394	10292.66
238.466	10287.12
238.538	10332.3
238.609	10374.16
238.681	10314.51
238.753	10289.55
238.825	10310.75
238.897	10343.69
238.968	10429.33
239.04	10411.98
239.112	10529.1
239.184	10486.4
239.255	10485.49
239.327	10523.73
239.399	10546.71
239.471	10587.95
239.542	10625.48
239.614	10689.03
239.686	10604.32
239.758	10658.38
239.829	10624.64
239.901	10686.31
239.973	10706.49
240.044	10740.17
240.116	10756.12
240.188	10777.08
240.259	10796.55
240.331	10783.53
240.403	10823.38
240.474	10773.83
240.546	10765.26
240.618	10704.25
240.689	10703.19
240.761	10728.2
240.833	10797.93
240.904	10795.18
240.976	10797.5
241.048	10815.81
241.119	10856.58
241.191	10904.42
241.262	10974.51
241.334	10977.73
241.405	10985.88
241.477	10991.85
241.549	11000
241.62	11025.68
241.692	11073.2
241.763	11135.08
241.835	11156.87
241.906	11181.01
241.978	11153.69
242.049	11219.8
242.121	11284.52
242.192	11358.45
242.264	11324.09
242.335	11275.17
242.407	11324.23
242.478	11334.54
242.55	11352.42
242.621	11337.39
242.693	11344.08
242.764	11332.95
242.836	11331.31
242.907	11362.06
242.979	11397.77
243.05	11416.57
243.122	11437.58
243.193	11434.01
243.264	11366.15
243.336	11369.77
243.407	11400.71
243.479	11485.82
243.55	11504.96
243.622	11526.31
243.693	11520.62
243.764	11586.99
243.836	11563.09
243.907	11552.53
243.978	11557.79
244.05	11586.85
244.121	11540.73
244.192	11577.41
244.264	11527.81
244.335	11542.17
244.407	11494.75
244.478	11512.49
244.549	11509.16
244.62	11464.2
244.692	11465.74
244.763	11513.74
244.834	11506.99
244.906	11484.63
244.977	11504
245.048	11553.12
245.119	11518.13
245.191	11496.78
245.262	11437.65
245.333	11519.9
245.405	11540.05
245.476	11571.72
245.547	11587.43
245.618	11640.25
245.689	11659.63
245.761	11701.94
245.832	11712.6
245.903	11758.91
245.974	11781.13
246.045	11790.87
246.117	11877.77
246.188	11857.48
246.259	11836.37
246.33	11852.56
246.401	11867.89
246.473	11829.81
246.544	11817.37
246.615	11885.44
246.686	11886.88
246.757	11958.36
246.828	11940.76
246.899	12010.61
246.97	11980.06
247.042	11967.14
247.113	12008.64
247.184	12094.35
247.255	12095.07
247.326	12122.26
247.397	12130.07
247.468	12143.23
247.539	12164.05
247.61	12121.34
247.681	12171.37
247.752	12231.19
247.823	12204.92
247.894	12215.67
247.965	12190.03
248.037	12177.59
248.108	12116.62
248.179	12126.88
248.25	12123.89
248.321	12148.62
248.392	12099.79
248.463	12183.85
248.534	12184.96
248.605	12214.12
248.675	12186.31
248.746	12198.36
248.817	12216.14
248.888	12236.73
248.959	12179.85
249.03	12204.34
249.101	12218.27
249.172	12202.02
249.243	12127.65
249.314	12198.8
249.385	12209.16
249.456	12241.45
249.527	12236.01
249.598	12263.62
249.669	12268.54
249.739	12279.82
249.81	12297.85
249.881	12253.26
249.952	12247.09
250.023	12250.08
250.094	12196.19
250.165	12167.75
250.235	12169.72
250.306	12167.36
250.377	12129.67
250.448	12157.33
250.519	12097.61
250.59	12153.43
250.66	12156.52
250.731	12228.38
250.802	12220.19
250.873	12245.93
250.944	12268.53
251.014	12260.2
251.085	12356.12
251.156	12384.18
251.227	12437.88
251.297	12488.78
251.368	12552.7
251.439	12589.38
251.51	12639.81
251.58	12625.2
251.651	12619.27
251.722	12665.45
251.792	12616.72
251.863	12630.27
251.934	12694.09
252.005	12809.29
252.075	12810.21
252.146	12865.45
252.217	12915.25
252.287	12965.72
252.358	12959.69
252.429	13029.79
252.499	13031.76
252.57	13038.03
252.641	13087.83
252.711	13093.9
252.782	13052.25
252.852	13120.99
252.923	13125.14
252.994	13138.49
253.064	13192.09
253.135	13174.5
253.205	13156.95
253.276	13239.67
253.347	13295.39
253.417	13269.89
253.488	13246.13
253.558	13236.73
253.629	13226.56
253.699	13235.62
253.77	13260.35
253.841	13256.78
253.911	13271.2
253.982	13285.17
254.052	13309.13
254.123	13311.64
254.193	13318.15
254.264	13456.54
254.334	13420.92
254.405	13387.61
254.475	13353.53
254.546	13361.38
254.616	13425.74
254.687	13457.99
254.757	13480.02
254.827	13486.82
254.898	13518.63
254.968	13522.73
255.039	13509.57
255.109	13550.74
255.18	13524.66
255.25	13444.97
255.321	13485.37
255.391	13444.49
255.461	13531.17
255.532	13455.72
255.602	13452.35
255.673	13395.61
255.743	13352.9
255.813	13288.07
255.884	13340.71
255.954	13381.59
256.024	13438.42
256.095	13441.56
256.165	13402.65
256.235	13423.62
256.306	13416.78
256.376	13459.73
256.446	13506.25
256.517	13542.93
256.587	13584.49
256.657	13607.34
256.728	13641.56
256.798	13649.23
256.868	13640.94
256.938	13607.96
257.009	13660.03
257.079	13696.66
257.149	13795.92
257.219	13731.52
257.29	13772.68
257.36	13706.74
257.43	13741.59
257.5	13676.08
257.571	13668.89
257.641	13706.69
257.711	13663.74
257.781	13688.66
257.852	13710.79
257.922	13642.62
257.992	13644.12
258.062	13639.73
258.132	13681.28
258.202	13683.31
258.273	13694.59
258.343	13769.07
258.413	13760.58
258.483	13758.03
258.553	13722.02
258.623	13696.28
258.693	13741.78
258.764	13809.61
258.834	13884.09
258.904	13904.24
258.974	13899.51
259.044	13909.59
259.114	13938.17
259.184	13972.93
259.254	13984.21
259.324	13926.41
259.394	13970.96
259.464	14050.98
259.535	14064.91
259.605	14059.65
259.675	14050.2
259.745	14084.04
259.815	14068.28
259.885	14065.2
259.955	14174.04
260.025	14168.83
260.095	14182.09
260.165	14206.77
260.235	14263.94
260.305	14248.41
260.375	14216.74
260.445	14312.67
260.515	14377.89
260.585	14434.2
260.655	14443.84
260.725	14493.78
260.795	14535.48
260.865	14610.29
260.934	14573.22
261.004	14598
261.074	14602.62
261.144	14671.42
261.214	14709.54
261.284	14706.07
261.354	14748.11
261.424	14703.62
261.494	14778.44
261.564	14785.86
261.634	14801.91
261.703	14737.56
261.773	14762
261.843	14792.18
261.913	14780.75
261.983	14722.86
262.053	14738.43
262.123	14737.46
262.192	14686.95
262.262	14728.35
262.332	14680
262.402	14717.65
262.472	14729.46
262.541	14668.24
262.611	14712.97
262.681	14690.41
262.751	14734.28
262.821	14741.08
262.89	14712.83
262.96	14736.69
263.03	14813.09
263.1	14841.82
263.169	14860.09
263.239	14899.52
263.309	14970.28
263.379	15007.83
263.448	15027.88
263.518	15050.1
263.588	15060.71
263.657	15134.36
263.727	15174.22
263.797	15197.17
263.867	15200.5
263.936	15153.11
264.006	15220.89
264.076	15211.59
264.145	15209.8
264.215	15192.74
264.285	15238.53
264.354	15200.69
264.424	15184.16
264.494	15136.73
264.563	15131.91
264.633	15212.65
264.702	15234.77
264.772	15178.38
264.842	15173.03
264.911	15212.7
264.981	15168.5
265.05	15191.39
265.12	15186.48
265.19	15190.43
265.259	15230.39
265.329	15268.08
265.398	15302.98
265.468	15398.66
265.537	15397.89
265.607	15438.62
265.676	15482.39
265.746	15495.26
265.815	15555.9
265.885	15564.09
265.955	15546.74
266.024	15541.15
266.094	15481.04
266.163	15534.49
266.232	15603.18
266.302	15611.9
266.371	15629.11
266.441	15650.75
266.51	15692.83
266.58	15700.83
266.649	15681.02
266.719	15731.1
266.788	15754.86
266.858	15822.44
266.927	15753.85
266.996	15780.84
267.066	15810.05
267.135	15783.88
267.205	15835.26
267.274	15852.22
267.343	15905.77
267.413	15928.33
267.482	15989.01
267.552	16052.3
267.621	16008.92
267.69	15966.7
267.76	15990.75
267.829	16013.36
267.898	16036.59
267.968	16017.55
268.037	16054.47
268.106	16115.97
268.176	16082.76
268.245	16092.5
268.314	16085.32
268.384	16137.42
268.453	16163.21
268.522	16179.21
268.592	16242.98
268.661	16231.41
268.73	16269.83
268.799	16262.4
268.869	16342.36
268.938	16301.88
269.007	16288.19
269.076	16310.65
269.146	16358.94
269.215	16386.32
269.284	16461.55
269.353	16461.17
269.422	16479.97
269.492	16476.93
269.561	16388.58
269.63	16426.51
269.699	16412.58
269.768	16425.74
269.838	16460.06
269.907	16494.9
269.976	16461.6
270.045	16403.57
270.114	16436.34
270.183	16437.79
270.253	16468.68
270.322	16421.83
270.391	16446.03
270.46	16514.42
270.529	16563.63
270.598	16609.65
270.667	16616.59
270.736	16592.11
270.806	16630.71
270.875	16688.89
270.944	16699.83
271.013	16833.09
271.082	16858.58
271.151	16901.33
271.22	16869.09
271.289	16878.82
271.358	16886.39
271.427	16936.42
271.496	16968.23
271.565	16965.19
271.634	16985.48
271.703	17118.68
271.772	17178.59
271.841	17193.05
271.91	17164.62
271.979	17188.81
272.048	17155.75
272.117	17207.32
272.186	17208.23
272.255	17253.53
272.324	17291.89
272.393	17329.58
272.462	17319.94
272.531	17343.32
272.6	17361.1
272.669	17435.66
272.738	17449.15
272.807	17483.18
272.876	17461.44
272.945	17608.62
273.013	17672.96
273.082	17741.49
273.151	17644.86
273.22	17690.41
273.289	17721.73
273.358	17808.81
273.427	17815.56
273.496	17878.5
273.564	17907.99
273.633	17966.3
273.702	17947.85
273.771	17963.85
273.84	17991.12
273.909	18026.21
273.977	18059.75
274.046	18073
274.115	18136.32
274.184	18129.09
274.253	18146.68
274.322	18225.77
274.39	18158.64
274.459	18142.3
274.528	18088.09
274.597	18103.7
274.665	18125.24
274.734	18191.99
274.803	18195.02
274.872	18220.37
274.94	18210.3
275.009	18362.3
275.078	18360.42
275.147	18403.02
275.215	18428.94
275.284	18500.12
275.353	18513.86
275.421	18475.54
275.49	18578.33
275.559	18586.38
275.627	18613.37
275.696	18633.37
275.765	18673.17
275.833	18694.86
275.902	18740.78
275.971	18832.25
276.039	18929.21
276.108	18985.25
276.177	19013.01
276.245	19019.37
276.314	19049.15
276.383	19120.18
276.451	19028.13
276.52	19083.79
276.588	19162.44
276.657	19217.86
276.725	19225.38
276.794	19261.33
276.863	19345.32
276.931	19301.37
277	19362.48
277.068	19436.4
277.137	19538.37
277.205	19573.5
277.274	19689.02
277.342	19759.62
277.411	19738.85
277.48	19737.5
277.548	19749.79
277.617	19802.07
277.685	19831.71
277.754	19882.94
277.822	19887.18
277.89	19984.87
277.959	20001.2
278.027	19989.01
278.096	19998.22
278.164	20130.42
278.233	20152.25
278.301	20172.1
278.37	20232.49
278.438	20231.43
278.507	20277.11
278.575	20229.11
278.643	20260.1
278.712	20220.05
278.78	20216.29
278.849	20299.08
278.917	20376
278.985	20404.87
279.054	20452.82
279.122	20545.69
279.191	20580.87
279.259	20615.48
279.327	20571.86
279.396	20663.91
279.464	20695.52
279.532	20758.13
279.601	20780.36
279.669	20818.91
279.737	20901.28
279.806	20953.52
279.874	21022.15
279.942	21062.2
280.011	21100.56
280.079	21166.4
280.147	21270.02
280.215	21336.82
280.284	21356.58
280.352	21354.66
280.42	21420.5
280.488	21434.86
280.557	21443.73
280.625	21503.02
280.693	21550.68
280.761	21611.8
280.83	21597.82
280.898	21677.93
280.966	21662.21
281.034	21594.34
281.102	21596.51
281.171	21611.6
281.239	21684.49
281.307	21713.61
281.375	21728.4
281.443	21852
281.512	21877.21
281.58	21940.95
281.648	21927.31
281.716	21975.55
281.784	22015.8
281.852	22033.93
281.92	22079.97
281.989	22157.25
282.057	22142.69
282.125	22326.61
282.193	22364.89
282.261	22414.59
282.329	22434.02
282.397	22486.6
282.465	22552.11
282.533	22643.12
282.601	22656.24
282.67	22612.31
282.738	22619.3
282.806	22692.1
282.874	22701.26
282.942	22766.55
283.01	22794.23
283.078	22867.56
283.146	22902.07
283.214	22968.71
283.282	23022.47
283.35	23102.86
283.418	23131.41
283.486	23190.56
283.554	23101.23
283.622	23141.64
283.69	23183.83
283.758	23222.5
283.826	23294.73
283.894	23373.62
283.962	23477.95
284.03	23565.37
284.098	23629.36
284.165	23667.88
284.233	23715.62
284.301	23734.72
284.369	23748.66
284.437	23774.75
284.505	23806.53
284.573	23905.4
284.641	23927.78
284.709	24002.31
284.777	23984.03
284.845	24056.93
284.912	24126.52
284.98	24183.05
285.048	24205.14
285.116	24275.95
285.184	24361.33
285.252	24400.69
285.319	24397.99
285.387	24420.92
285.455	24419.81
285.523	24488.3
285.591	24526.02
285.659	24573.97
285.726	24672.98
285.794	24674.33
285.862	24711.58
285.93	24751.71
285.997	24775.4
286.065	24799.62
286.133	24816.89
286.201	24856.64
286.269	24844.43
286.336	24863.93
286.404	24897.31
286.472	24980.79
286.539	24948.27
286.607	24940.7
286.675	25002.33
286.743	25067.32
286.81	25081.99
286.878	25174.59
286.946	25191.96
287.013	25225.78
287.081	25261.21
287.149	25236.73
287.216	25353.91
287.284	25376.49
287.352	25432.04
287.419	25460.71
287.487	25553.76
287.555	25597.93
287.622	25635.62
287.69	25696.05
287.758	25775.41
287.825	25802.14
287.893	25807.94
287.96	25877.03
288.028	25963.78
288.096	26008.44
288.163	26065.65
288.231	26083.03
288.298	26126.88
288.366	26224.94
288.433	26270.11
288.501	26297.19
288.569	26352.71
288.636	26373.23
288.704	26455.27
288.771	26517.46
288.839	26537.69
288.906	26555.36
288.974	26630.19
289.041	26671.9
289.109	26678.94
289.176	26751.17
289.244	26804.76
289.311	26894.01
289.379	26973.78
289.446	27025.08
289.514	27064.21
289.581	27095.7
289.649	27155.25
289.716	27196.22
289.783	27203.32
289.851	27319.62
289.918	27373.96
289.986	27455.26
290.053	27502.65
290.121	27545.36
290.188	27605.42
290.255	27754.83
290.323	27799.71
290.39	27820.79
290.458	27891.02
290.525	27986.97
290.592	28004.13
290.66	28064.13
290.727	28095.21
290.794	28182.83
290.862	28225.76
290.929	28269.59
290.996	28324.54
291.064	28391.08
291.131	28476.08
291.198	28563.38
291.266	28601.37
291.333	28642.5
291.4	28701.38
291.468	28808.25
291.535	28846.58
291.602	28895.27
291.669	28897.3
291.737	28953.47
291.804	29004.34
291.871	29092.19
291.938	29161.34
292.006	29313.75
292.073	29393.38
292.14	29469.31
292.207	29497.84
292.275	29537.6
292.342	29611.45
292.409	29739.51
292.476	29864.14
292.543	29883.25
292.611	29923.94
292.678	30025.39
292.745	30150.48
292.812	30228
292.879	30255.63
292.946	30308.6
293.014	30395.31
293.081	30479.7
293.148	30555.8
293.215	30657.82
293.282	30698.08
293.349	30769.86
293.416	30738
293.484	30824.88
293.551	30905.23
293.618	31008.96
293.685	31146.64
293.752	31180.33
293.819	31221.2
293.886	31224.06
293.953	31293.51
294.02	31375.48
294.087	31438.14
294.154	31459.93
294.221	31544.2
294.288	31588.41
294.356	31680.15
294.423	31744.47
294.49	31757.39
294.557	31849.06
294.624	31851.53
294.691	31954.39
294.758	32007.43
294.825	32073.05
294.892	32091.89
294.959	32134.91
295.026	32187.96
295.093	32200.9
295.16	32249.85
295.226	32293.45
295.293	32417.21
295.36	32482.6
295.427	32572.5
295.494	32657.8
295.561	32742.73
295.628	32880.64
295.695	32986.46
295.762	33055.08
295.829	33127.39
295.896	33241.55
295.963	33319.06
296.03	33415.28
296.096	33485.67
296.163	33571.42
296.23	33680.68
296.297	33786.96
296.364	33829.08
296.431	33901.37
296.498	33944.74
296.564	34087.93
296.631	34155.07
296.698	34174.76
296.765	34293.61
296.832	34314.84
296.899	34319.35
296.965	34433.42
297.032	34398.44
297.099	34510.15
297.166	34592.3
297.233	34635.13
297.299	34668.29
297.366	34735.28
297.433	34789.35
297.5	34878.08
297.566	34936.38
297.633	34984.65
297.7	35042.62
297.767	35104.39
297.833	35176.24
297.9	35233.95
297.967	35232.21
298.033	35316.04
298.1	35455.26
298.167	35472.78
298.234	35538.26
298.3	35629.71
298.367	35665.28
298.434	35757.1
298.5	35762
298.567	35794.6
298.634	35851.28
298.7	35953.02
298.767	36005.78
298.834	36109.48
298.9	36124.67
298.967	36139.08
299.033	36219.12
299.1	36308.52
299.167	36398
299.233	36431.3
299.3	36528.16
299.366	36627.83
299.433	36715.71
299.5	36673.32
299.566	36728.65
299.633	36839.28
299.699	36924.19
299.766	36943.9
299.832	36994.98
299.899	37079.85
299.965	37174.7
300.032	37195.86
300.099	37260.88
300.165	37333.42
300.232	37364.98
300.298	37425.61
300.365	37522.9
300.431	37577.24
300.498	37611.72
300.564	37678.23
300.631	37765.15
300.697	37863.78
300.763	37902.77
300.83	37953.58
300.896	38044.03
300.963	38122.11
301.029	38176.03
301.096	38230.48
301.162	38337.8
301.229	38372.18
301.295	38385.39
301.361	38437.51
301.428	38518.5
301.494	38525
301.561	38580.43
301.627	38638.22
301.693	38695
301.76	38756.1
301.826	38779.61
301.892	38865.01
301.959	38942.68
302.025	38967.5
302.092	38990.68
302.158	39071.99
302.224	39129.32
302.291	39155.5
302.357	39191.45
302.423	39222.74
302.49	39231.38
302.556	39290.27
302.622	39336.42
302.688	39421
302.755	39514.39
302.821	39580.51
302.887	39660.86
302.954	39694.19
303.02	39769.98
303.086	39836.49
303.152	39883.87
303.219	39918.8
303.285	39973.47
303.351	40038.2
303.417	40115.22
303.483	40147.04
303.55	40185.52
303.616	40223.19
303.682	40270.22
303.748	40312.54
303.815	40413.19
303.881	40509.65
303.947	40524.38
304.013	40585.75
304.079	40600.67
304.145	40573.85
304.212	40629.29
304.278	40654.76
304.344	40698.74
304.41	40707.29
304.476	40727.46
304.542	40754.82
304.608	40828.69
304.674	40826.7
304.741	40849.4
304.807	40898.63
304.873	40959.87
304.939	41057.62
305.005	41043.24
305.071	41089.16
305.137	41131.44
305.203	41083.22
305.269	41103.54
305.335	41191.14
305.401	41211.55
305.467	41247.57
305.533	41323.01
305.599	41384.84
305.666	41454.2
305.732	41493.14
305.798	41579.96
305.864	41702.86
305.93	41762.12
305.996	41803.34
306.062	41844.61
306.128	41883.21
306.194	41880.73
306.259	41909.95
306.325	41902.56
306.391	41983.41
306.457	42047.72
306.523	42097.89
306.589	42221.43
306.655	42243.21
306.721	42216.23
306.787	42232.37
306.853	42326.25
306.919	42312.01
306.985	42326.89
307.051	42352.22
307.117	42365.2
307.183	42378.72
307.248	42335.92
307.314	42391.21
307.38	42438.72
307.446	42497.31
307.512	42512.34
307.578	42557.89
307.644	42579.24
307.709	42624.17
307.775	42639.73
307.841	42658.16
307.907	42702.17
307.973	42666.76
308.039	42711.16
308.104	42774.27
308.17	42816.33
308.236	42800.04
308.302	42861.98
308.368	42854.11
308.433	42875.84
308.499	42900.44
308.565	42905.26
308.631	42950.58
308.696	42911.92
308.762	42910.66
308.828	42938.57
308.894	42913.87
308.959	42898.36
309.025	42923.16
309.091	42947.87
309.156	42976.66
309.222	43033.18
309.288	43041.64
309.354	43019.18
309.419	43058.14
309.485	43045.69
309.551	43109.69
309.616	43102.11
309.682	43123.31
309.748	43151.76
309.813	43174.86
309.879	43188.28
309.945	43182.83
310.01	43191.4
310.076	43249.8
310.141	43257.63
310.207	43243.48
310.273	43287
310.338	43330.57
310.404	43314.14
310.469	43297.11
310.535	43293.56
310.601	43254.94
310.666	43303.63
310.732	43369.38
310.797	43356.2
310.863	43369.72
310.928	43370.11
310.994	43419.43
311.059	43443.55
311.125	43466.8
311.191	43547.52
311.256	43553.89
311.322	43620.33
311.387	43593.38
311.453	44462.05
311.518	44481.36
311.584	44520.62
311.649	44583.22
311.715	44596.01
311.78	44629.57
311.846	44652.67
311.911	44711.05
311.976	44756.29
312.042	44729.68
312.107	44728.85
312.173	44742.96
312.238	44763.68
312.304	44788.88
312.369	44809.56
312.434	44808.49
312.5	44820.11
312.565	44737.99
312.631	44785.99
312.696	44790.37
312.761	44847.43
312.827	44014.03
312.892	44121.54
312.958	44150.93
313.023	44184.7
313.088	44211.99
313.154	44214.52
313.219	44216.85
313.284	44229.07
313.35	44249.99
313.415	44262.25
313.48	44273.97
313.546	44318.3
313.611	44377.46
313.676	44379.99
313.741	44375.03
313.807	44424.56
313.872	44485.43
313.937	44545.51
314.003	44621.33
314.068	44653.4
314.133	44701.52
314.198	44704.34
314.264	44664.28
314.329	44664.13
314.394	44671.43
314.459	44707.1
314.525	44801.4
314.59	44823.83
314.655	44811.18
314.72	44862.81
314.785	44903.88
314.851	44917.16
314.916	44886.7
314.981	44878.52
315.046	44880.81
315.111	44893.65
315.176	44884.84
315.242	44916.34
315.307	44947.09
315.372	44900.37
315.437	44908.79
315.502	44910.88
315.567	44972.69
315.632	44955.66
315.698	44990.22
315.763	44999.71
315.828	44987.98
315.893	44988.62
315.958	44997.57
316.023	44991.19
316.088	44949.09
316.153	44893.82
316.218	44891.93
316.283	44846.54
316.348	44797.79
316.413	44796.87
316.479	44752.01
316.544	44652.15
316.609	44553.56
316.674	44432.13
316.739	44322.21
316.804	44201.95
316.869	44070.27
316.934	43918.42
316.999	43799.01
317.064	43614.99
317.129	43458.44
317.194	43317.94
317.259	43125.85
317.324	42938.4
317.389	42762.86
317.454	42600.23
317.518	42460.35
317.583	42337.71
317.648	42210.86
317.713	42050.86
317.778	41816.17
317.843	41668.28
317.908	41502.54
317.973	41336.18
318.038	41202.9
318.103	41042.67
318.168	40898.21
318.233	40745.02
318.297	40540.96
318.362	40366.84
318.427	40178.28
318.492	40039.87
318.557	39831.59
318.622	39694.95
318.687	39555.44
318.751	39364.01
318.816	39190.04
318.881	39017.98
318.946	38773.35
319.011	38571.01
319.075	38360.63
319.14	38184.27
319.205	37969.53
319.27	37790.81
319.335	37561.53
319.399	37341.77
319.464	37169.67
319.529	36918.03
319.594	36708.45
319.658	36525.67
319.723	36305.53
319.788	36136.37
319.853	35866.08
319.917	35687.6
319.982	35423.2
320.047	35215.11
320.112	35039.48
320.176	34778
320.241	34569.82
320.306	34383.5
320.37	34159.55
320.435	33965.91
320.5	33782.01
320.564	33561.17
320.629	33330.06
320.694	33132.81
320.758	32899.49
320.823	32659.97
320.888	32480.92
320.952	32234.07
321.017	32003.22
321.082	31786.37
321.146	31568.09
321.211	31350.31
321.275	31107.07
321.34	30864.08
321.405	30613.09
321.469	30372.32
321.534	30145.41
321.598	29885.66
321.663	29686.91
321.727	29484.87
321.792	29230.26
321.857	28979.29
321.921	28758.53
321.986	28523.84
322.05	28227.98
322.115	28014.32
322.179	27762.82
322.244	27465.99
322.308	27244.79
322.373	27001.49
322.437	26760.58
322.502	26576.59
322.566	26325.3
322.631	26108.67
322.695	25880.76
322.76	25640.74
322.824	25409
322.889	25164.18
322.953	24914.5
323.018	24590.69
323.082	24273.27
323.146	24000.27
323.211	23716.51
323.275	23456.81
323.34	23200.95
323.404	22978.73
323.468	22711.63
323.533	22459.9
323.597	22204.75
323.662	21923.01
323.726	21689.53
323.79	21421.65
323.855	21085.7
323.919	20813.08
323.983	20546.96
324.048	20154.05
324.112	20288.4
324.177	19483.09
324.241	18423.12
324.305	17372.65
324.37	16344.26
324.434	15351.09
324.498	15075.96
324.562	14769.04
324.627	14415.37
324.691	14066.41
324.755	13680.34
324.82	13236.05
324.884	12764.58
324.948	12289.38
325.012	11717.87
325.077	10995.35
