Data from 20250701_urea_2M_exp3_MAYP1162681_16-39-48-639.txt Node
Date: Tue Jul 01 16:39:48 BST 2025
User: adleo
Spectrometer: MAYP116268
Trigger mode: 0
Integration Time (sec): 4.000000E0
Scans to average: 1
Electric dark correction enabled: true
Nonlinearity correction enabled: true
Boxcar width: 10
XAxis mode: Wavelengths
Number of Pixels in Spectrum: 2068
>>>>>Begin Spectral Data<<<<<
179.565	4138.04
179.642	4357.11
179.718	4526.11
179.795	4670.61
179.871	4797.11
179.948	4865.73
180.024	4944.94
180.101	5027.28
180.177	5085.36
180.254	5173.17
180.33	5258.28
180.407	5563.39
180.483	5883.92
180.56	6211.43
180.636	6511.73
180.712	6466.33
180.789	6503.64
180.865	6553.45
180.942	6580.91
181.018	6620.62
181.095	6668.19
181.171	6686.35
181.248	6685.82
181.324	6741.56
181.4	6771.68
181.477	6809.87
181.553	6858.65
181.63	6937.59
181.706	7001.4
181.782	7029.87
181.859	7029.29
181.935	7051.78
182.011	7038.66
182.088	7102.39
182.164	7173.35
182.24	7225.9
182.317	7263.52
182.393	7257.8
182.469	7304.13
182.546	7353.39
182.622	7374.92
182.698	7358.91
182.775	7400.01
182.851	7451.72
182.927	7420
183.003	7404.43
183.08	7384.97
183.156	7419.72
183.232	7404.47
183.308	7358.57
183.385	7389.71
183.461	7448.74
183.537	7452.63
183.613	7498.45
183.69	7465.85
183.766	7426.36
183.842	7452.86
183.918	7474.73
183.995	7525.97
184.071	7541.12
184.147	7519.15
184.223	7478.36
184.299	7524.43
184.375	7486.55
184.452	7509.4
184.528	7647.98
184.604	7686.24
184.68	7730.12
184.756	7758.84
184.832	7778.41
184.908	7799.36
184.985	7797.1
185.061	7743.59
185.137	7774.03
185.213	7731.87
185.289	7733.17
185.365	7705.49
185.441	7698.99
185.517	7745.85
185.593	7731.86
185.669	7716.23
185.745	7758.88
185.822	7815.25
185.898	7785.29
185.974	7818.69
186.05	7792.76
186.126	7714.14
186.202	7691.84
186.278	7677.03
186.354	7639.71
186.43	7666.51
186.506	7664.92
186.582	7665.5
186.658	7689.43
186.734	7616.32
186.81	7623.82
186.886	7636.51
186.962	7680.01
187.038	7669.43
187.114	7636.62
187.19	7666.77
187.266	7635.92
187.341	7635.29
187.417	7612.17
187.493	7614.52
187.569	7624.43
187.645	7599.72
187.721	7561.19
187.797	7588.5
187.873	7604.75
187.949	7587.74
188.025	7556.56
188.101	7569.16
188.176	7588.29
188.252	7572.19
188.328	7603.08
188.404	7601.83
188.48	7584.14
188.556	7560.58
188.632	7551.69
188.707	7556.79
188.783	7541.35
188.859	7525.64
188.935	7482.94
189.011	7505.48
189.086	7476.88
189.162	7448.33
189.238	7442.85
189.314	7431.98
189.39	7405.35
189.465	7380.4
189.541	7437.91
189.617	7386.53
189.693	7360.05
189.768	7370.77
189.844	7458.65
189.92	7426.61
189.996	7455.98
190.071	7498.91
190.147	7496.85
190.223	7533.25
190.298	7505.36
190.374	7460.27
190.45	7502.12
190.526	7534.53
190.601	7521.31
190.677	7528.08
190.753	7632.01
190.828	7646.52
190.904	7700.38
190.98	7758.91
191.055	7797
191.131	7771.31
191.207	7846.12
191.282	7883.51
191.358	7849.76
191.433	7795.43
191.509	7847.81
191.585	7843.82
191.66	7843.29
191.736	7872.09
191.811	7836.27
191.887	7893.56
191.963	7975.36
192.038	7995.51
192.114	7996.33
192.189	8011.48
192.265	8002.01
192.34	7922.27
192.416	7915.63
192.491	7900.77
192.567	7909.72
192.642	7915.88
192.718	7909.43
192.793	7865.96
192.869	7851.15
192.944	7852.4
193.02	7884.97
193.095	7896.32
193.171	7917.82
193.246	7912.62
193.322	7906.03
193.397	7909.16
193.473	7856.81
193.548	7789.47
193.624	7812.62
193.699	7803.62
193.775	7856.11
193.85	7862.94
193.925	7890.79
194.001	7890.36
194.076	7865.16
194.152	7830.47
194.227	7802.28
194.302	7768.16
194.378	7783.74
194.453	7771.48
194.529	7823.03
194.604	7767.63
194.679	7750.03
194.755	7676.91
194.83	7726.28
194.905	7713.16
194.981	7745.33
195.056	7726.39
195.131	7752.98
195.207	7744.94
195.282	7715.33
195.357	7642.74
195.433	7700.11
195.508	7656.15
195.583	7681.34
195.659	7729.54
195.734	7753.59
195.809	7748.3
195.884	7779.64
195.96	7776.08
196.035	7836.24
196.11	7821.23
196.185	7859.36
196.261	7871.96
196.336	7991.37
196.411	7937.29
196.486	7959.89
196.561	7936.66
196.637	7964.98
196.712	8023.3
196.787	8034.85
196.862	8089.48
196.937	8130.69
197.013	8148.45
197.088	8185.29
197.163	8267.3
197.238	8330.32
197.313	8329.12
197.388	8382.57
197.464	8493.26
197.539	8539.01
197.614	8513.04
197.689	8553.51
197.764	8621.81
197.839	8689.66
197.914	8661.65
197.989	8741.97
198.065	8788.75
198.14	8976.07
198.215	9072.43
198.29	9119.1
198.365	9161.13
198.44	9203.39
198.515	9301.42
198.59	9358.33
198.665	9453.28
198.74	9481.45
198.815	9488.1
198.89	9567.78
198.965	9676.49
199.04	9662.57
199.115	9715.92
199.19	9868.75
199.265	9881.41
199.34	9916.1
199.415	10036.3
199.49	10114.46
199.565	10155.21
199.64	10244.27
199.715	10237.52
199.79	10253.18
199.865	10267.1
199.94	10264.98
200.015	10376.75
200.09	10396.08
200.165	10409.52
200.24	10431.68
200.315	10575.16
200.39	10623.48
200.464	10645.16
200.539	10652.44
200.614	10710.49
200.689	10795.97
200.764	10815.58
200.839	10882.58
200.914	10897.57
200.989	10861.9
201.063	10913.99
201.138	10850.8
201.213	10851.96
201.288	10778.58
201.363	10804.98
201.438	10809.99
201.512	10867.07
201.587	10803.61
201.662	10818.16
201.737	10869.82
201.812	10904.03
201.886	10779.78
201.961	10820.07
202.036	10779.8
202.111	10771.02
202.186	10665.07
202.26	10605.46
202.335	10531.16
202.41	10507.22
202.485	10441.27
202.559	10366.99
202.634	10265.77
202.709	10297.07
202.784	10219.95
202.858	10215.76
202.933	10141.77
203.008	10115.18
203.082	10048.99
203.157	10047.5
203.232	9893.57
203.306	9816.48
203.381	9696.15
203.456	9617.31
203.53	9530.52
203.605	9460.24
203.68	9369.97
203.754	9348.41
203.829	9290.52
203.904	9216.28
203.978	9170.77
204.053	9186.52
204.127	9136.21
204.202	9137.37
204.277	9067.57
204.351	9048.84
204.426	9025.05
204.5	8999.63
204.575	8873.36
204.65	8906.3
204.724	8869.55
204.799	8896.77
204.873	8881.65
204.948	8874.43
205.022	8832.33
205.097	8796.69
205.171	8842.79
205.246	8877.03
205.32	8869.58
205.395	8872.13
205.469	8840.81
205.544	8871.1
205.618	8811.32
205.693	8861.62
205.767	8810.46
205.842	8891.05
205.916	8870.6
205.991	8825.73
206.065	8847.2
206.14	8904.91
206.214	8883.82
206.289	8863.4
206.363	8910.09
206.438	8923.43
206.512	8954.29
206.586	9019.41
206.661	9055.29
206.735	8978.79
206.81	8976.82
206.884	9032.88
206.958	8979.46
207.033	9038.79
207.107	9057.19
207.181	9171.7
207.256	9150.42
207.33	9225.7
207.405	9272.05
207.479	9338.11
207.553	9370.74
207.628	9308.43
207.702	9355.51
207.776	9329.89
207.851	9339.42
207.925	9394.77
207.999	9374.93
208.073	9365.78
208.148	9381.67
208.222	9337.85
208.296	9453.79
208.371	9511.84
208.445	9557.45
208.519	9670.02
208.593	9710.85
208.668	9694.09
208.742	9701.65
208.816	9703.58
208.89	9746.31
208.965	9738.65
209.039	9768.37
209.113	9830.26
209.187	9907.7
209.261	9889.88
209.336	9969.64
209.41	10050.33
209.484	10049.94
209.558	10135.69
209.632	10185.83
209.707	10225.52
209.781	10301
209.855	10356.27
209.929	10414.34
210.003	10432.8
210.077	10424.75
210.151	10600.18
210.226	10728.22
210.3	10833.68
210.374	10921.92
210.448	10938.93
210.522	10976.52
210.596	11012.76
210.67	11046.93
210.744	11218.96
210.818	11336.12
210.892	11406.2
210.966	11379.99
211.041	11437.57
211.115	11423.31
211.189	11511.65
211.263	11569.09
211.337	11597.47
211.411	11652.03
211.485	11636.76
211.559	11678.97
211.633	11684.27
211.707	11568.15
211.781	11591.1
211.855	11455.67
211.929	11425.6
212.003	11348.14
212.077	11387.8
212.151	11433.93
212.225	11465.69
212.299	11423.51
212.373	11377.49
212.447	11356.81
212.52	11463.66
212.594	11472.29
212.668	11509.98
212.742	11450.21
212.816	11425.15
212.89	11396.09
212.964	11380.57
213.038	11383.61
213.112	11428.38
213.186	11480.81
213.26	11399.88
213.333	11228.48
213.407	11239.6
213.481	11236.38
213.555	11280.69
213.629	11220.01
213.703	11146.51
213.777	11126.51
213.85	11049.88
213.924	11165.46
213.998	11153.7
214.072	11113.06
214.146	11054.99
214.219	11029.11
214.293	11002.42
214.367	10998.22
214.441	11022.99
214.515	10970.51
214.588	10867.82
214.662	10722.45
214.736	10632.26
214.81	10648.82
214.883	10665.25
214.957	10606.77
215.031	10547.3
215.105	10447.92
215.178	10378.35
215.252	10337.26
215.326	10230.6
215.4	10130.15
215.473	9930.86
215.547	9841.44
215.621	9767.18
215.694	9756.78
215.768	9653.32
215.842	9583.15
215.915	9501.4
215.989	9376.36
216.063	9311.13
216.136	9289.51
216.21	9256.05
216.284	9265.87
216.357	9241.03
216.431	9191.44
216.504	9192.93
216.578	9248.79
216.652	9256.59
216.725	9229.67
216.799	9234.15
216.873	9215.9
216.946	9226.78
217.02	9181.94
217.093	9148.62
217.167	9044.25
217.24	8952.9
217.314	8915.27
217.387	8865.96
217.461	8816.62
217.535	8838.95
217.608	8771.47
217.682	8739.36
217.755	8751.87
217.829	8688.23
217.902	8663.15
217.976	8644.62
218.049	8587.06
218.123	8509.68
218.196	8511.41
218.27	8476.57
218.343	8402.19
218.417	8395.74
218.49	8371.34
218.563	8418.69
218.637	8430.72
218.71	8503.74
218.784	8537.14
218.857	8568.71
218.931	8590.69
219.004	8597.57
219.077	8621.74
219.151	8642.05
219.224	8634.39
219.298	8636.66
219.371	8690.57
219.444	8651.32
219.518	8663.68
219.591	8688.65
219.665	8801.4
219.738	8816.27
219.811	8797.89
219.885	8846.22
219.958	8881.36
220.031	8884.01
220.105	8906.87
220.178	8908.27
220.251	8882.56
220.325	8904.18
220.398	8931.86
220.471	8954.96
220.544	8995.92
220.618	8968.96
220.691	8997.74
220.764	9023.11
220.838	9055.32
220.911	9033.22
220.984	9122.6
221.057	9163.23
221.131	9189.03
221.204	9084.56
221.277	9163.97
221.35	9298.98
221.424	9288.92
221.497	9297.73
221.57	9333.3
221.643	9364.27
221.716	9418.83
221.79	9422.59
221.863	9434.68
221.936	9435.35
222.009	9453.6
222.082	9493.72
222.155	9504.17
222.229	9577.48
222.302	9605.07
222.375	9612.24
222.448	9657.56
222.521	9659.44
222.594	9659.29
222.667	9622.23
222.74	9683.63
222.814	9675.72
222.887	9652.69
222.96	9719.84
223.033	9775.62
223.106	9801.14
223.179	9838.53
223.252	9854.96
223.325	9893.1
223.398	9909.76
223.471	9943.76
223.544	9970.59
223.617	9981.81
223.69	10009.26
223.763	9971.64
223.837	9999.04
223.91	10028.09
223.983	9973.29
224.056	9945.26
224.129	9973.1
224.202	10041.51
224.275	10030.72
224.348	9996.57
224.42	9963.29
224.493	9891.38
224.566	9859.34
224.639	9879.66
224.712	9848.88
224.785	9830.23
224.858	9817.37
224.931	9795.89
225.004	9751.2
225.077	9744.02
225.15	9638.09
225.223	9633.9
225.296	9718.9
225.369	9658.17
225.442	9619.78
225.514	9641.54
225.587	9666.29
225.66	9672.65
225.733	9670.92
225.806	9683.54
225.879	9678
225.952	9641.7
226.025	9696.74
226.097	9753.17
226.17	9742.28
226.243	9671.59
226.316	9663.88
226.389	9672.75
226.461	9703.38
226.534	9730.3
226.607	9727.99
226.68	9827.95
226.753	9826.5
226.825	9736.64
226.898	9799.87
226.971	9809.07
227.044	9836.23
227.117	9843.51
227.189	9863.11
227.262	9906.86
227.335	9923.53
227.407	9914.09
227.48	9957.52
227.553	9969.66
227.626	9951.4
227.698	9957.9
227.771	10008.79
227.844	9994.34
227.916	10011.73
227.989	9967.75
228.062	9969.48
228.134	10066.52
228.207	10066.18
228.28	10062.52
228.352	10073.89
228.425	10080.54
228.498	10132.08
228.57	10105.64
228.643	10169.72
228.716	10173.05
228.788	10160.52
228.861	10155.22
228.934	10229.93
229.006	10239.81
229.079	10248.67
229.151	10234.99
229.224	10202.43
229.296	10227.05
229.369	10340.38
229.442	10396.08
229.514	10379.91
229.587	10424.37
229.659	10337.4
229.732	10352.05
229.804	10396.32
229.877	10487.59
229.949	10526.43
230.022	10577.75
230.094	10589.31
230.167	10577.99
230.239	10528.71
230.312	10516.32
230.384	10600.56
230.457	10597.43
230.529	10599.65
230.602	10604.51
230.674	10619.88
230.747	10671.47
230.819	10706.01
230.892	10577.46
230.964	10582.43
231.037	10612.62
231.109	10606.65
231.181	10650.77
231.254	10615.02
231.326	10602.84
231.399	10574.64
231.471	10542.4
231.544	10463.18
231.616	10512.31
231.688	10523.54
231.761	10520.08
231.833	10510.63
231.905	10414.88
231.978	10412.67
232.05	10402.84
232.122	10406.55
232.195	10379.76
232.267	10418.36
232.339	10397.39
232.412	10465.03
232.484	10441.61
232.556	10416.03
232.629	10490.93
232.701	10519.07
232.773	10535.74
232.846	10526.68
232.918	10541.28
232.99	10565.86
233.062	10613.9
233.135	10628.79
233.207	10584.84
233.279	10634.84
233.351	10676.76
233.424	10686.15
233.496	10659.41
233.568	10756.7
233.64	10719.41
233.713	10742.39
233.785	10742.25
233.857	10766.92
233.929	10717.59
234.001	10788.73
234.074	10862
234.146	10790.38
234.218	10791.73
234.29	10794.28
234.362	10781.47
234.434	10734.48
234.507	10697.62
234.579	10636.91
234.651	10615.66
234.723	10658.3
234.795	10681
234.867	10677.92
234.939	10738.3
235.012	10765.66
235.084	10775.2
235.156	10814.95
235.228	10791.87
235.3	10775.1
235.372	10780.69
235.444	10854.85
235.516	10770.17
235.588	10782.41
235.66	10801.44
235.732	10772.77
235.804	10983.02
235.876	11035.68
235.948	11102.71
236.02	11125.07
236.092	11146.27
236.164	11162.84
236.236	11159.81
236.308	11161.64
236.38	11189.64
236.452	11172.29
236.524	11194.12
236.596	11257.79
236.668	11299
236.74	11330.17
236.812	11363.33
236.884	11406.8
236.956	11412.01
237.028	11405.02
237.1	11391.72
237.172	11469.37
237.244	11552.85
237.316	11429.87
237.388	11417.73
237.46	11392.14
237.532	11453.01
237.604	11444.57
237.675	11526.27
237.747	11575.34
237.819	11566.66
237.891	11575.24
237.963	11565.02
238.035	11570.08
238.107	11452.52
238.178	11520.06
238.25	11529.5
238.322	11632.85
238.394	11580.51
238.466	11586.68
238.538	11640.31
238.609	11686.34
238.681	11628.16
238.753	11601.26
238.825	11629.27
238.897	11660.16
238.968	11759.17
239.04	11749.82
239.112	11881.63
239.184	11839.51
239.255	11846.78
239.327	11885.44
239.399	11913.25
239.471	11975.95
239.542	12017.02
239.614	12100.01
239.686	12011.76
239.758	12078.37
239.829	12037.97
239.901	12115.62
239.973	12135.72
240.044	12173.12
240.116	12190.81
240.188	12213.85
240.259	12244.94
240.331	12241.42
240.403	12286.2
240.474	12232.02
240.546	12218.23
240.618	12152.97
240.689	12152.92
240.761	12179.38
240.833	12251.93
240.904	12254
240.976	12245.37
241.048	12266.05
241.119	12312.76
241.191	12372.19
241.262	12445.13
241.334	12451.83
241.405	12459.16
241.477	12464.27
241.549	12476.7
241.62	12506.11
241.692	12556.53
241.763	12618.09
241.835	12632.89
241.906	12654.58
241.978	12630.77
242.049	12714.02
242.121	12789.31
242.192	12876.32
242.264	12835.3
242.335	12788.2
242.407	12839.73
242.478	12857.37
242.55	12877.81
242.621	12857.61
242.693	12857.76
242.764	12849.42
242.836	12859.64
242.907	12896.47
242.979	12942.5
243.05	12967.62
243.122	12999.77
243.193	13000.45
243.264	12922.07
243.336	12933.92
243.407	12977.74
243.479	13066.92
243.55	13087.46
243.622	13098.88
243.693	13101.2
243.764	13181.99
243.836	13156.25
243.907	13148.88
243.978	13156.25
244.05	13182.43
244.121	13127.67
244.192	13173.37
244.264	13122.75
244.335	13141.02
244.407	13086.55
244.478	13100.62
244.549	13095.75
244.62	13049.72
244.692	13051.74
244.763	13109.4
244.834	13101.83
244.906	13076.9
244.977	13108.82
245.048	13167.82
245.119	13151
245.191	13124.87
245.262	13059.26
245.333	13151.67
245.405	13170.95
245.476	13212.26
245.547	13244.99
245.618	13314.51
245.689	13337.16
245.761	13381.22
245.832	13384.07
245.903	13435.12
245.974	13477.01
246.045	13487.23
246.117	13579.93
246.188	13570.14
246.259	13556.6
246.33	13577.91
246.401	13597.57
246.473	13559.11
246.544	13547.49
246.615	13616.57
246.686	13623.65
246.757	13711.1
246.828	13686.56
246.899	13770.54
246.97	13736.55
247.042	13724.6
247.113	13772.9
247.184	13872.77
247.255	13871.04
247.326	13911.05
247.397	13926.91
247.468	13933.8
247.539	13964.75
247.61	13921.46
247.681	13969.14
247.752	14031.52
247.823	14007.08
247.894	14025.64
247.965	13991.31
248.037	13971.69
248.108	13912.06
248.179	13931.68
248.25	13919.87
248.321	13955.79
248.392	13904.69
248.463	13989.24
248.534	13992.43
248.605	14021.54
248.675	13991.8
248.746	14019.13
248.817	14035.76
248.888	14057.51
248.959	13997.92
249.03	14026.8
249.101	14037.36
249.172	14025.5
249.243	13940.56
249.314	14017.98
249.385	14024.58
249.456	14062.52
249.527	14061.17
249.598	14097.61
249.669	14097.08
249.739	14118.1
249.81	14138.78
249.881	14092.89
249.952	14093.9
250.023	14088.84
250.094	14030.56
250.165	13999.08
250.235	13989.01
250.306	13995.18
250.377	13962.83
250.448	13995.9
250.519	13928.46
250.59	13993.68
250.66	13993.92
250.731	14080.07
250.802	14074.24
250.873	14099.59
250.944	14127.41
251.014	14123.26
251.085	14215.57
251.156	14243.67
251.227	14305.42
251.297	14363.99
251.368	14430.03
251.439	14475.83
251.51	14535.41
251.58	14522.15
251.651	14519.98
251.722	14586.5
251.792	14537.62
251.863	14549.96
251.934	14621.55
252.005	14741.24
252.075	14746.83
252.146	14813.5
252.217	14867.05
252.287	14920.61
252.358	14928.08
252.429	15003.85
252.499	14994.89
252.57	15002.21
252.641	15054.37
252.711	15063.33
252.782	15014.46
252.852	15097.07
252.923	15101.22
252.994	15115.1
253.064	15173.38
253.135	15148.36
253.205	15124.89
253.276	15209.25
253.347	15283.63
253.417	15260.1
253.488	15246.27
253.558	15244.24
253.629	15241.93
253.699	15255.81
253.77	15282.85
253.841	15287.53
253.911	15309.22
253.982	15335.78
254.052	15377.52
254.123	15390.68
254.193	15392.22
254.264	15545.49
254.334	15508.91
254.405	15481.04
254.475	15450.63
254.546	15458
254.616	15533.83
254.687	15573.93
254.757	15592.97
254.827	15594.27
254.898	15627.05
254.968	15635.92
255.039	15616.54
255.109	15649.99
255.18	15623.87
255.25	15549.78
255.321	15581.07
255.391	15535.52
255.461	15627.63
255.532	15541.26
255.602	15534.85
255.673	15481.2
255.743	15439.51
255.813	15372.41
255.884	15423.6
255.954	15470.5
256.024	15548.97
256.095	15558.27
256.165	15515.71
256.235	15540.48
256.306	15524.38
256.376	15573.64
256.446	15619.38
256.517	15667.35
256.587	15723.3
256.657	15754.49
256.728	15783.46
256.798	15794.79
256.868	15798.69
256.938	15769.97
257.009	15816.86
257.079	15857.21
257.149	15964.89
257.219	15903.72
257.29	15945.27
257.36	15882.71
257.43	15929.7
257.5	15859.33
257.571	15849.59
257.641	15896.11
257.711	15859
257.781	15898.33
257.852	15918.33
257.922	15853.07
257.992	15850.18
258.062	15843.81
258.132	15880.4
258.202	15890.47
258.273	15904.01
258.343	15978.72
258.413	15972.16
258.483	15981.71
258.553	15946.09
258.623	15917.17
258.693	15953.85
258.764	16030.1
258.834	16114.31
258.904	16136.48
258.974	16131.18
259.044	16141.92
259.114	16169.4
259.184	16204.44
259.254	16218.51
259.324	16162.17
259.394	16217.12
259.464	16309.8
259.535	16319.77
259.605	16321.65
259.675	16325.85
259.745	16370.77
259.815	16349.95
259.885	16346.38
259.955	16476.55
260.025	16474.62
260.095	16489.75
260.165	16516.45
260.235	16585.46
260.305	16563.44
260.375	16524.02
260.445	16623.64
260.515	16703.11
260.585	16760.8
260.655	16780.9
260.725	16829.14
260.795	16870.5
260.865	16945.54
260.934	16905.92
261.004	16937.25
261.074	16939.03
261.144	16992.77
261.214	17027.57
261.284	17025.06
261.354	17078.75
261.424	17022.56
261.494	17098.19
261.564	17106.48
261.634	17139.1
261.703	17059.2
261.773	17093.61
261.843	17126.38
261.913	17117.9
261.983	17052.5
262.053	17076.89
262.123	17067.44
262.192	17024.26
262.262	17077.03
262.332	17032.6
262.402	17071.87
262.472	17089.99
262.541	17022.03
262.611	17080.73
262.681	17053.6
262.751	17105.31
262.821	17107.63
262.89	17078.18
262.96	17111.91
263.03	17202.8
263.1	17223.91
263.169	17249.12
263.239	17279.58
263.309	17353.89
263.379	17383.62
263.448	17402.85
263.518	17420.2
263.588	17435.34
263.657	17508.21
263.727	17549.02
263.797	17556.45
263.867	17555.63
263.936	17512.49
264.006	17590.09
264.076	17585.13
264.145	17593.08
264.215	17577.47
264.285	17618.19
264.354	17566.96
264.424	17546.67
264.494	17487.59
264.563	17480.6
264.633	17571.01
264.702	17596.36
264.772	17541.27
264.842	17533.27
264.911	17579.73
264.981	17544.46
265.05	17568.75
265.12	17568.51
265.19	17577.08
265.259	17634.19
265.329	17672.6
265.398	17696.79
265.468	17797.42
265.537	17778.81
265.607	17811.39
265.676	17862.57
265.746	17894.52
265.815	17964.02
265.885	17979.78
265.955	17965.08
266.024	17969.61
266.094	17896.94
266.163	17956.98
266.232	18030.52
266.302	18046.66
266.371	18067.43
266.441	18081.94
266.51	18131.87
266.58	18135.91
266.649	18113.46
266.719	18166.95
266.788	18197.4
266.858	18272.48
266.927	18198.51
266.996	18236.97
267.066	18279.91
267.135	18240.49
267.205	18285.78
267.274	18312.53
267.343	18373.15
267.413	18399.32
267.482	18467.32
267.552	18536.04
267.621	18486.98
267.69	18435.42
267.76	18466.12
267.829	18489.58
267.898	18520.33
267.968	18494.36
268.037	18532.14
268.106	18586.88
268.176	18549.58
268.245	18555.41
268.314	18543.27
268.384	18615.75
268.453	18635.26
268.522	18657.82
268.592	18731.89
268.661	18711.45
268.73	18747.11
268.799	18730.54
268.869	18814.58
268.938	18763.64
269.007	18749.09
269.076	18784.32
269.146	18855.3
269.215	18883.49
269.284	18958.24
269.353	18944.5
269.422	18961.66
269.492	18958.04
269.561	18869.28
269.63	18902.29
269.699	18897.61
269.768	18923.3
269.838	18942.62
269.907	18992.74
269.976	18953.75
270.045	18894.72
270.114	18931.92
270.183	18939.58
270.253	18972.4
270.322	18916.94
270.391	18946.81
270.46	19024.54
270.529	19073.5
270.598	19108.73
270.667	19119.58
270.736	19088.49
270.806	19137.12
270.875	19199.86
270.944	19214.99
271.013	19355.18
271.082	19392.52
271.151	19429.87
271.22	19385.68
271.289	19405.73
271.358	19401.54
271.427	19441.39
271.496	19469.77
271.565	19473.2
271.634	19489.34
271.703	19627.8
271.772	19697.92
271.841	19708.96
271.91	19668.33
271.979	19683.75
272.048	19653.2
272.117	19701.54
272.186	19704.14
272.255	19753.15
272.324	19795.03
272.393	19828.57
272.462	19823.12
272.531	19840.81
272.6	19859.7
272.669	19944.75
272.738	19962.2
272.807	20009.33
272.876	19994.68
272.945	20149.19
273.013	20207.36
273.082	20280.99
273.151	20184.89
273.22	20224.07
273.289	20253.66
273.358	20346.72
273.427	20358.86
273.496	20409.17
273.564	20451.63
273.633	20515.49
273.702	20497.75
273.771	20514.04
273.84	20554.76
273.909	20595.05
273.977	20630.24
274.046	20640.21
274.115	20693.13
274.184	20678.43
274.253	20694.53
274.322	20780.17
274.39	20701.75
274.459	20697.9
274.528	20643.58
274.597	20658.71
274.665	20684.35
274.734	20756.16
274.803	20764.5
274.872	20778.91
274.94	20774.57
275.009	21014.37
275.078	21008.83
275.147	21049.31
275.215	21075.77
275.284	21135.54
275.353	21138.09
275.421	21105.95
275.49	21212.28
275.559	21227.08
275.627	21253.1
275.696	21272.62
275.765	21310.7
275.833	21335.03
275.902	21376.87
275.971	21470.95
276.039	21562.53
276.108	21621.43
276.177	21657.05
276.245	21662.79
276.314	21705.97
276.383	21777.21
276.451	21595.44
276.52	21650.68
276.588	21735.81
276.657	21797.32
276.725	21808.89
276.794	21862.88
276.863	21951.18
276.931	21907.12
277	21975.14
277.068	22046.33
277.137	22149.25
277.205	22191.67
277.274	22304.66
277.342	22387.49
277.411	22351.34
277.48	22362.38
277.548	22371.97
277.617	22421.58
277.685	22453.06
277.754	22507.92
277.822	22521.47
277.89	22613.57
277.959	22639.07
278.027	22618.1
278.096	22612.17
278.164	22754.1
278.233	22772.71
278.301	22778.3
278.37	22843.91
278.438	22845.46
278.507	22902.97
278.575	22856.68
278.643	22882.86
278.712	22867.53
278.78	22851.96
278.849	22943.21
278.917	23015.64
278.985	23053.2
279.054	23103.65
279.122	23192.17
279.191	23230.17
279.259	23262.67
279.327	23228.61
279.396	23323.95
279.464	23346.86
279.532	23424.93
279.601	23444.57
279.669	23476.39
279.737	23566.53
279.806	23614.08
279.874	23687.63
279.942	23734.94
280.011	23770.33
280.079	23848.22
280.147	23950.08
280.215	24009.69
280.284	24040.12
280.352	24039.78
280.42	24101.66
280.488	24110.2
280.557	24121.25
280.625	24181.79
280.693	24234.88
280.761	24286.35
280.83	24275.98
280.898	24378.03
280.966	24355.36
281.034	24295.34
281.102	24286.91
281.171	24305.05
281.239	24391.37
281.307	24400.54
281.375	24402.9
281.443	24538.76
281.512	24558.54
281.58	24623.5
281.648	24616.12
281.716	24649.02
281.784	24684.38
281.852	24701.03
281.92	24737.26
281.989	24812.68
282.057	24787.59
282.125	24972.77
282.193	25012.24
282.261	25053.16
282.329	25069.27
282.397	25125.76
282.465	25177.82
282.533	25272.27
282.601	25283.03
282.67	25240.61
282.738	25261.93
282.806	25345.51
282.874	25339.33
282.942	25397.44
283.01	25409.76
283.078	25490.05
283.146	25532.27
283.214	25612.92
283.282	25662.92
283.35	25762.57
283.418	25786.51
283.486	25857.4
283.554	25756.7
283.622	25796.14
283.69	25833.73
283.758	25866.65
283.826	25931.67
283.894	26016.68
283.962	26126.44
284.03	26229.99
284.098	26279.03
284.165	26304.75
284.233	26356.51
284.301	26380.94
284.369	26397.02
284.437	26421.6
284.505	26446.22
284.573	26548.48
284.641	26557.51
284.709	26635.7
284.777	26605.71
284.845	26682.03
284.912	26747.8
284.98	26804.34
285.048	26843.02
285.116	26912.99
285.184	27017.22
285.252	27061.07
285.319	27051.56
285.387	27083.26
285.455	27058.24
285.523	27135.47
285.591	27173.75
285.659	27214.19
285.726	27313.66
285.794	27317.62
285.862	27347.86
285.93	27385.96
285.997	27409.06
286.065	27437.8
286.133	27451.52
286.201	27507.64
286.269	27509.14
286.336	27518.03
286.404	27547.16
286.472	27622.69
286.539	27593.13
286.607	27567.28
286.675	27622.99
286.743	27689.27
286.81	27700.34
286.878	27793.4
286.946	27820.84
287.013	27871.32
287.081	27909.21
287.149	27890.36
287.216	27999.86
287.284	28038.62
287.352	28093.65
287.419	28131.88
287.487	28232.76
287.555	28307.02
287.622	28336.98
287.69	28397.36
287.758	28497.37
287.825	28530.76
287.893	28530.91
287.96	28614.98
288.028	28693.77
288.096	28752.08
288.163	28815.95
288.231	28818.22
288.298	28869.82
288.366	28956.43
288.433	29003.4
288.501	29026.37
288.569	29082.83
288.636	29104.74
288.704	29201.08
288.771	29277.39
288.839	29290.2
288.906	29306.94
288.974	29372.55
289.041	29410.02
289.109	29419.59
289.176	29481.57
289.244	29549.61
289.311	29640.59
289.379	29717.68
289.446	29785.66
289.514	29820.15
289.581	29863.5
289.649	29938.32
289.716	29984.09
289.783	30005.28
289.851	30116.4
289.918	30167.09
289.986	30247.55
290.053	30314.23
290.121	30349.27
290.188	30405.27
290.255	30555.05
290.323	30581.03
290.39	30605.62
290.458	30675.77
290.525	30770.08
290.592	30801.7
290.66	30853.47
290.727	30875.98
290.794	30979.64
290.862	31020.69
290.929	31076.02
290.996	31122.1
291.064	31186.86
291.131	31281.25
291.198	31369.52
291.266	31402.78
291.333	31446.05
291.4	31518.64
291.468	31622.59
291.535	31658.47
291.602	31715.32
291.669	31730.44
291.737	31796.13
291.804	31842.96
291.871	31954.4
291.938	32029.14
292.006	32171.47
292.073	32261.4
292.14	32351.1
292.207	32356.19
292.275	32398.81
292.342	32470.22
292.409	32611.52
292.476	32755.21
292.543	32760.63
292.611	32806.09
292.678	32921.37
292.745	33060.9
292.812	33133.46
292.879	33167.15
292.946	33216.41
293.014	33289.94
293.081	33372.33
293.148	33467.59
293.215	33561.67
293.282	33567.68
293.349	33641.76
293.416	33611.99
293.484	33701.91
293.551	33781.86
293.618	33896.36
293.685	34039.58
293.752	34071.38
293.819	34096.6
293.886	34084.47
293.953	34156.89
294.02	34246.56
294.087	34306.65
294.154	34320.95
294.221	34418.16
294.288	34465.35
294.356	34581.91
294.423	34663.25
294.49	34687.55
294.557	34778
294.624	34803.08
294.691	34939.54
294.758	35007.31
294.825	35086.32
294.892	35106.16
294.959	35149.87
295.026	35219.59
295.093	35247.05
295.16	35299.47
295.226	35346.34
295.293	35495.41
295.36	35571.66
295.427	35657.32
295.494	35749.92
295.561	35837.24
295.628	35964.69
295.695	36071.84
295.762	36132.94
295.829	36216.66
295.896	36313.12
295.963	36406.51
296.03	36492.69
296.096	36568.12
296.163	36648.8
296.23	36754.91
296.297	36858.18
296.364	36911.66
296.431	36969.82
296.498	37001.17
296.564	37148.13
296.631	37222.45
296.698	37217.78
296.765	37336.77
296.832	37347.16
296.899	37360.66
296.965	37474.17
297.032	37457.56
297.099	37559.94
297.166	37646.61
297.233	37686.48
297.299	37728.03
297.366	37780.34
297.433	37847.92
297.5	37926.6
297.566	37978.95
297.633	38032.72
297.7	38102.94
297.767	38155.13
297.833	38239.78
297.9	38313.2
297.967	38308.39
298.033	38396.83
298.1	38559.27
298.167	38578.36
298.234	38657.96
298.3	38747.81
298.367	38793.76
298.434	38861.34
298.5	38882.62
298.567	38918.37
298.634	38956.84
298.7	39072.49
298.767	39117.72
298.834	39222.26
298.9	39259.04
298.967	39292.03
299.033	39373.7
299.1	39473.06
299.167	39580.27
299.233	39608.79
299.3	39708.04
299.366	39824.67
299.433	39927.89
299.5	39885.71
299.566	39964.47
299.633	40061.45
299.699	40142.07
299.766	40175.79
299.832	40241.1
299.899	40319.59
299.965	40414.59
300.032	40467.93
300.099	40540.74
300.165	40612.61
300.232	40634.82
300.298	40683.08
300.365	40777.11
300.431	40835.87
300.498	40863.19
300.564	40935.51
300.631	41026.98
300.697	41130.08
300.763	41174.55
300.83	41219.27
300.896	41310.4
300.963	41393.62
301.029	41473.1
301.096	41535.04
301.162	41629.19
301.229	41665.45
301.295	41686.26
301.361	41754.95
301.428	41829.65
301.494	41821.88
301.561	41885.12
301.627	41950.07
301.693	42012.14
301.76	42072.87
301.826	42100.24
301.892	42199.72
301.959	42282.57
302.025	42324.39
302.092	42338.05
302.158	42409.57
302.224	42462.77
302.291	42485.62
302.357	42518.1
302.423	42527.83
302.49	42547.03
302.556	42642.94
302.622	42702.85
302.688	42786.78
302.755	42871.27
302.821	42930.97
302.887	43044.47
302.954	43098.93
303.02	43176.84
303.086	43245.51
303.152	43286.12
303.219	43330.13
303.285	43389.58
303.351	43461.63
303.417	43520.82
303.483	43555.49
303.55	43590.9
303.616	43638.91
303.682	43693.91
303.748	43720.37
303.815	43834.5
303.881	43926.2
303.947	43930.24
304.013	43976.35
304.079	44005.73
304.145	43996.63
304.212	44053.84
304.278	44045.57
304.344	44083.17
304.41	44090.91
304.476	44115.57
304.542	44149.67
304.608	44199.44
304.674	44185.08
304.741	44196.81
304.807	44259.87
304.873	44334.22
304.939	44444.77
305.005	44423.85
305.071	44467.73
305.137	44529.76
305.203	44485.28
305.269	44524.12
305.335	44601.55
305.401	44639.9
305.467	44672.5
305.533	44736.44
305.599	44807.98
305.666	44901.02
305.732	44941.07
305.798	45022.83
305.864	45158.8
305.93	45231.12
305.996	45281.3
306.062	45324.9
306.128	45371.29
306.194	45369.49
306.259	45405.03
306.325	45410.58
306.391	45509.53
306.457	45592.75
306.523	45639.97
306.589	45790.62
306.655	45812.77
306.721	45802.49
306.787	45813.3
306.853	45913.89
306.919	45897.39
306.985	45903.43
307.051	45914.77
307.117	45942.47
307.183	45978.11
307.248	45913
307.314	45969.88
307.38	46024.85
307.446	46092.44
307.512	46095.99
307.578	46159.87
307.644	46169.17
307.709	46223.62
307.775	46242.23
307.841	46260.63
307.907	46309.87
307.973	46262.61
308.039	46288.66
308.104	46355.82
308.17	46409.23
308.236	46393.21
308.302	46455.14
308.368	46460.78
308.433	46502.86
308.499	46526.23
308.565	46517.08
308.631	46566.21
308.696	46529
308.762	46517.07
308.828	46542.99
308.894	46520.73
308.959	46487.28
309.025	46520.79
309.091	46530.87
309.156	46546.36
309.222	46585.04
309.288	46569.16
309.354	46529.09
309.419	46558.22
309.485	46523.34
309.551	46574.3
309.616	46568.36
309.682	46601.44
309.748	46626.76
309.813	46646.24
309.879	46650.33
309.945	46670.64
310.01	46691.11
310.076	46729.24
310.141	46758.32
310.207	46745.8
310.273	46802.43
310.338	46849.28
310.404	46815.39
310.469	46808.57
310.535	46823.04
310.601	46792.93
310.666	46858.27
310.732	46937.7
310.797	46936.54
310.863	46947.98
310.928	46952.51
310.994	47001.48
311.059	47021.46
311.125	47056.43
311.191	47131.55
311.256	47147.38
311.322	47194.45
311.387	47165.61
311.453	47903.98
311.518	47919.04
311.584	47942.52
311.649	47988.96
311.715	47988.04
311.78	48034.31
311.846	48047.41
311.911	48104.06
311.976	48150.83
312.042	48135.48
312.107	48124.51
312.173	48136.6
312.238	48171.48
312.304	48202.44
312.369	48203.75
312.434	48199.02
312.5	48214.96
312.565	48137.89
312.631	48184.52
312.696	48185.2
312.761	48246.06
312.827	47547.11
312.892	47661.29
312.958	47711.79
313.023	47746.61
313.088	47783.35
313.154	47775.5
313.219	47780.08
313.284	47769.45
313.35	47780.96
313.415	47771.31
313.48	47798.89
313.546	47848.42
313.611	47910.73
313.676	47920.53
313.741	47930.32
313.807	47993.17
313.872	48038.86
313.937	48102.76
314.003	48182.35
314.068	48227.16
314.133	48264.81
314.198	48269.83
314.264	48226.35
314.329	48211.23
314.394	48217.81
314.459	48239.31
314.525	48342.12
314.59	48362.21
314.655	48368.79
314.72	48429.85
314.785	48485.27
314.851	48494.19
314.916	48462.55
314.981	48434.12
315.046	48420.86
315.111	48421.83
315.176	48409.59
315.242	48450.33
315.307	48475.88
315.372	48432.32
315.437	48423.68
315.502	48436.61
315.567	48519.29
315.632	48502.42
315.698	48541.83
315.763	48565.93
315.828	48575.49
315.893	48589.39
315.958	48600.31
316.023	48592.46
316.088	48555.15
316.153	48504.89
316.218	48493.39
316.283	48454.99
316.348	48397.14
316.413	48408.89
316.479	48374.14
316.544	48259.38
316.609	48142.31
316.674	48014.76
316.739	47884.04
316.804	47774.59
316.869	47635.65
316.934	47469.31
316.999	47349.11
317.064	47147.99
317.129	46961.94
317.194	46813.95
317.259	46604.57
317.324	46401.43
317.389	46207.56
317.454	46026.09
317.518	45865.09
317.583	45741.78
317.648	45620.6
317.713	45459.83
317.778	45204.41
317.843	45045.58
317.908	44870.12
317.973	44682.9
318.038	44526.5
318.103	44362.07
318.168	44199.35
318.233	44036.31
318.297	43808.84
318.362	43616.54
318.427	43436.7
318.492	43291.93
318.557	43056.91
318.622	42914.93
318.687	42778.4
318.751	42580.18
318.816	42391.18
318.881	42196.37
318.946	41936.62
319.011	41695.97
319.075	41494.29
319.14	41287.69
319.205	41053.74
319.27	40864.7
319.335	40639.45
319.399	40425.12
319.464	40234.73
319.529	39962.83
319.594	39720.61
319.658	39523.76
319.723	39284.31
319.788	39085.1
319.853	38806.49
319.917	38618.2
319.982	38325.7
320.047	38081.7
320.112	37882.22
320.176	37618.37
320.241	37386.43
320.306	37189.84
320.37	36943.79
320.435	36734.8
320.5	36544.77
320.564	36305.08
320.629	36048.39
320.694	35835.75
320.758	35584.85
320.823	35330.95
320.888	35127.87
320.952	34856.48
321.017	34608.37
321.082	34365.97
321.146	34133.64
321.211	33907.66
321.275	33646.2
321.34	33384.96
321.405	33130.91
321.469	32861.45
321.534	32607.56
321.598	32334.47
321.663	32101.24
321.727	31883.97
321.792	31602.2
321.857	31337.96
321.921	31094.69
321.986	30852.08
322.05	30533.14
322.115	30286.75
322.179	30012.48
322.244	29704.04
322.308	29491.03
322.373	29233.89
322.437	28979.02
322.502	28779.37
322.566	28500.32
322.631	28268.07
322.695	28022.91
322.76	27752.18
322.824	27513.8
322.889	27246.96
322.953	26988.7
323.018	26646.97
323.082	26310.64
323.146	26011.2
323.211	25705.86
323.275	25434.09
323.34	25143.87
323.404	24914.74
323.468	24628.25
323.533	24357.99
323.597	24087.05
323.662	23775.66
323.726	23521.9
323.79	23240.53
323.855	22874.63
323.919	22587.49
323.983	22305.25
324.048	21884.37
324.112	22071.41
324.177	21209.57
324.241	20059.71
324.305	18922.59
324.37	17808.48
324.434	16731.64
324.498	16434.78
324.562	16103.47
324.627	15721.73
324.691	15353.03
324.755	14920.72
324.82	14449.26
324.884	13942.26
324.948	13427.49
325.012	12814.61
325.077	12041.89
