Data from 20250701_urea_2M_exp3_MAYP1162681_18-09-52-205.txt Node
Date: Tue Jul 01 18:09:52 BST 2025
User: adleo
Spectrometer: MAYP116268
Trigger mode: 0
Integration Time (sec): 4.000000E0
Scans to average: 1
Electric dark correction enabled: true
Nonlinearity correction enabled: true
Boxcar width: 10
XAxis mode: Wavelengths
Number of Pixels in Spectrum: 2068
>>>>>Begin Spectral Data<<<<<
179.565	4068.72
179.642	4278.65
179.718	4448.99
179.795	4596.65
179.871	4724.9
179.948	4795.48
180.024	4868.48
180.101	4956.83
180.177	5011.37
180.254	5100.79
180.33	5184.04
180.407	5481.55
180.483	5798.73
180.56	6115.77
180.636	6410.84
180.712	6364.29
180.789	6403.47
180.865	6450.4
180.942	6483.56
181.018	6529.46
181.095	6583.23
181.171	6597.01
181.248	6599.26
181.324	6653.32
181.4	6678.63
181.477	6716.25
181.553	6764.34
181.63	6846.68
181.706	6907.13
181.782	6938.52
181.859	6937.51
181.935	6959.9
182.011	6946.79
182.088	7004.06
182.164	7084.15
182.24	7133.76
182.317	7168.2
182.393	7163.11
182.469	7215.92
182.546	7263.49
182.622	7273.92
182.698	7255.61
182.775	7302.75
182.851	7358.35
182.927	7327.59
183.003	7317.17
183.08	7293.09
183.156	7325
183.232	7313.37
183.308	7269.82
183.385	7302.49
183.461	7362.05
183.537	7360.75
183.613	7410.26
183.69	7379.59
183.766	7336.41
183.842	7366.69
183.918	7383.52
183.995	7428.55
184.071	7439.56
184.147	7424.61
184.223	7391.47
184.299	7431.43
184.375	7390.29
184.452	7409.43
184.528	7550.22
184.604	7584.87
184.68	7628.41
184.756	7660.1
184.832	7674.43
184.908	7693.46
184.985	7684.86
185.061	7629.19
185.137	7661.79
185.213	7618.04
185.289	7622.66
185.365	7591.47
185.441	7583.01
185.517	7637.7
185.593	7625.1
185.669	7615.1
185.745	7647.65
185.822	7705.02
185.898	7678.77
185.974	7712.26
186.05	7688.79
186.126	7606.56
186.202	7582.15
186.278	7571.33
186.354	7527.43
186.43	7552.06
186.506	7545.86
186.582	7539.85
186.658	7559.07
186.734	7491.45
186.81	7494.24
186.886	7505.24
186.962	7552.34
187.038	7537.63
187.114	7504.14
187.19	7531.12
187.266	7497.29
187.341	7497.86
187.417	7472.34
187.493	7472.72
187.569	7485.37
187.645	7461.33
187.721	7415.51
187.797	7446.56
187.873	7459.59
187.949	7443.73
188.025	7417.03
188.101	7425.3
188.176	7451.01
188.252	7443.32
188.328	7467.44
188.404	7475.03
188.48	7457.63
188.556	7435.37
188.632	7434.46
188.707	7437.49
188.783	7420.75
188.859	7403.41
188.935	7365
189.011	7392.97
189.086	7365.34
189.162	7336.06
189.238	7325.06
189.314	7319.15
189.39	7290.21
189.465	7263.67
189.541	7325.12
189.617	7271.29
189.693	7250.78
189.768	7264.05
189.844	7352.31
189.92	7325.03
189.996	7350.03
190.071	7390.12
190.147	7383.53
190.223	7420.46
190.298	7385.56
190.374	7343.07
190.45	7386.26
190.526	7413.43
190.601	7394.58
190.677	7405.44
190.753	7507.82
190.828	7520.41
190.904	7575.17
190.98	7631.43
191.055	7671.48
191.131	7638.83
191.207	7721.42
191.282	7756.98
191.358	7722.99
191.433	7663.33
191.509	7713.06
191.585	7706.66
191.66	7706.76
191.736	7740.99
191.811	7702.37
191.887	7769.18
191.963	7855.88
192.038	7876.75
192.114	7879.93
192.189	7895.21
192.265	7878.69
192.34	7794.33
192.416	7794.53
192.491	7781.25
192.567	7792.27
192.642	7807.95
192.718	7812.13
192.793	7764.81
192.869	7751.49
192.944	7757.69
193.02	7786.65
193.095	7801.7
193.171	7824.98
193.246	7825.6
193.322	7811.61
193.397	7815.69
193.473	7763.07
193.548	7697.12
193.624	7716.32
193.699	7713.53
193.775	7769
193.85	7777.5
193.925	7812.61
194.001	7811.46
194.076	7780.3
194.152	7744.99
194.227	7708.05
194.302	7670.09
194.378	7684.32
194.453	7676.2
194.529	7727.31
194.604	7676.73
194.679	7656.24
194.755	7584.24
194.83	7627.88
194.905	7620.43
194.981	7654.96
195.056	7629.87
195.131	7651.99
195.207	7645.11
195.282	7611.74
195.357	7540.84
195.433	7600.99
195.508	7558.19
195.583	7581.6
195.659	7632.82
195.734	7651.96
195.809	7652.59
195.884	7688.15
195.96	7687.33
196.035	7740.22
196.11	7719.3
196.185	7761.71
196.261	7771.71
196.336	7891.88
196.411	7837.08
196.486	7857.47
196.561	7828.18
196.637	7855.63
196.712	7913.17
196.787	7920.54
196.862	7975.88
196.937	8015.31
197.013	8027.97
197.088	8061.44
197.163	8139.92
197.238	8203.52
197.313	8214.39
197.388	8261.58
197.464	8370.84
197.539	8411.96
197.614	8387.48
197.689	8432.42
197.764	8490.28
197.839	8562.55
197.914	8535.3
197.989	8625.1
198.065	8670.91
198.14	8855.56
198.215	8960.53
198.29	9006.95
198.365	9053.4
198.44	9092
198.515	9190.89
198.59	9249.78
198.665	9343.99
198.74	9371.97
198.815	9383.39
198.89	9454.45
198.965	9564.07
199.04	9548.03
199.115	9601.71
199.19	9756.5
199.265	9766.28
199.34	9802.01
199.415	9926.55
199.49	10007.55
199.565	10035.39
199.64	10128.39
199.715	10115.48
199.79	10132.77
199.865	10151.61
199.94	10148.09
200.015	10259.37
200.09	10277.39
200.165	10297.72
200.24	10322.77
200.315	10466.78
200.39	10518.62
200.464	10542.22
200.539	10546.22
200.614	10602.97
200.689	10686.95
200.764	10710.18
200.839	10775.2
200.914	10796.3
200.989	10752.69
201.063	10797.79
201.138	10738.46
201.213	10732.97
201.288	10666.67
201.363	10686.52
201.438	10687.29
201.512	10746.83
201.587	10682.88
201.662	10695.8
201.737	10739.94
201.812	10770.44
201.886	10652.69
201.961	10683.68
202.036	10645.29
202.111	10633.34
202.186	10523.06
202.26	10466.15
202.335	10389.54
202.41	10367.09
202.485	10298.31
202.559	10228.94
202.634	10129.76
202.709	10161.82
202.784	10089.86
202.858	10088.51
202.933	10018.77
203.008	9987.79
203.082	9914.87
203.157	9911.55
203.232	9753.83
203.306	9674.44
203.381	9552.57
203.456	9469.55
203.53	9383.44
203.605	9311.96
203.68	9224.88
203.754	9205.82
203.829	9149.72
203.904	9075.77
203.978	9031.23
204.053	9052.22
204.127	9009.81
204.202	9007.16
204.277	8937.51
204.351	8913.2
204.426	8886.62
204.5	8856.49
204.575	8740.24
204.65	8780.45
204.724	8750.87
204.799	8784.93
204.873	8772.6
204.948	8773.56
205.022	8731.61
205.097	8699.1
205.171	8748.43
205.246	8780.2
205.32	8778.14
205.395	8773.51
205.469	8741.91
205.544	8767.24
205.618	8704.47
205.693	8747.03
205.767	8699.34
205.842	8783.48
205.916	8767.7
205.991	8734.73
206.065	8756.53
206.14	8810.49
206.214	8789.68
206.289	8764.84
206.363	8813.07
206.438	8821.59
206.512	8844.84
206.586	8911.74
206.661	8945.45
206.735	8862.99
206.81	8865.16
206.884	8916.31
206.958	8871.89
207.033	8933.09
207.107	8955.63
207.181	9070.14
207.256	9043.27
207.33	9112.1
207.405	9149.68
207.479	9214.48
207.553	9236.86
207.628	9174.26
207.702	9212.53
207.776	9185.85
207.851	9195.77
207.925	9246.06
207.999	9233.97
208.073	9223.38
208.148	9233.35
208.222	9191.93
208.296	9313.06
208.371	9370.05
208.445	9408.48
208.519	9510.64
208.593	9549.11
208.668	9533.41
208.742	9536.97
208.816	9543.66
208.89	9594.68
208.965	9590.15
209.039	9619.15
209.113	9683.49
209.187	9762.94
209.261	9751.67
209.336	9828.68
209.41	9905.26
209.484	9904.4
209.558	9980.07
209.632	10029.24
209.707	10067.05
209.781	10144.45
209.855	10195.43
209.929	10261.07
210.003	10285.45
210.077	10280.63
210.151	10456
210.226	10579.41
210.3	10684.44
210.374	10769.5
210.448	10784.15
210.522	10823.32
210.596	10866.06
210.67	10900.52
210.744	11064.5
210.818	11178.91
210.892	11253.99
210.966	11234.52
211.041	11297.6
211.115	11290.57
211.189	11378.27
211.263	11436.58
211.337	11458.84
211.411	11513.06
211.485	11490.02
211.559	11533.73
211.633	11546.26
211.707	11433.32
211.781	11465.81
211.855	11329.23
211.929	11297.43
212.003	11224.93
212.077	11260.74
212.151	11297.66
212.225	11330.24
212.299	11295.25
212.373	11248.31
212.447	11219.58
212.52	11317.9
212.594	11316.6
212.668	11349.75
212.742	11294.47
212.816	11276.5
212.89	11250.57
212.964	11238.23
213.038	11241.61
213.112	11279.06
213.186	11319.05
213.26	11233.4
213.333	11058.91
213.407	11069.61
213.481	11065.99
213.555	11106.4
213.629	11050.21
213.703	10981.68
213.777	10961.96
213.85	10884.57
213.924	10998.36
213.998	10999.56
214.072	10967.8
214.146	10911.27
214.219	10888.09
214.293	10864.67
214.367	10854.31
214.441	10878.6
214.515	10822.02
214.588	10725.17
214.662	10585.11
214.736	10500.61
214.81	10512.79
214.883	10529.16
214.957	10471.32
215.031	10414.64
215.105	10313.54
215.178	10243.79
215.252	10200.19
215.326	10093.39
215.4	9995.6
215.473	9802.44
215.547	9704.35
215.621	9629.76
215.694	9624.89
215.768	9520.14
215.842	9448.78
215.915	9372.71
215.989	9247.54
216.063	9187.71
216.136	9161.7
216.21	9129.4
216.284	9142.89
216.357	9116.65
216.431	9065.95
216.504	9064.85
216.578	9124.08
216.652	9134.13
216.725	9106.69
216.799	9110.3
216.873	9086.76
216.946	9099.08
217.02	9055.78
217.093	9020.45
217.167	8913.34
217.24	8821.56
217.314	8783.6
217.387	8732.32
217.461	8683.42
217.535	8706.95
217.608	8629.04
217.682	8592.7
217.755	8608.77
217.829	8541.96
217.902	8525.11
217.976	8504.66
218.049	8453.22
218.123	8371.95
218.196	8373.1
218.27	8340.81
218.343	8266.82
218.417	8268.31
218.49	8245.36
218.563	8292.27
218.637	8301.51
218.71	8379.53
218.784	8406.53
218.857	8440.45
218.931	8463.14
219.004	8469.83
219.077	8488.71
219.151	8519.49
219.224	8515.69
219.298	8514.73
219.371	8567.77
219.444	8526.88
219.518	8538.05
219.591	8560.51
219.665	8668.52
219.738	8686.38
219.811	8669.06
219.885	8720.12
219.958	8747.85
220.031	8744.34
220.105	8765.23
220.178	8774.57
220.251	8740.05
220.325	8766
220.398	8788.58
220.471	8813.02
220.544	8854.8
220.618	8830.49
220.691	8854.22
220.764	8872.84
220.838	8900.28
220.911	8882.32
220.984	8975.31
221.057	9012.95
221.131	9043.99
221.204	8942.62
221.277	9011.72
221.35	9140.17
221.424	9133.57
221.497	9146.14
221.57	9177.56
221.643	9216.57
221.716	9269.88
221.79	9284.23
221.863	9294.63
221.936	9303.97
222.009	9322.89
222.082	9355.25
222.155	9364.83
222.229	9440.83
222.302	9475.4
222.375	9482.19
222.448	9524.47
222.521	9527.99
222.594	9527.12
222.667	9490.74
222.74	9550.58
222.814	9542.05
222.887	9522.4
222.96	9580.86
223.033	9636.36
223.106	9662.21
223.179	9690.87
223.252	9700.32
223.325	9729.16
223.398	9745.88
223.471	9776.6
223.544	9791.04
223.617	9798.61
223.69	9827.74
223.763	9782.27
223.837	9802.93
223.91	9837.08
223.983	9788.25
224.056	9750.31
224.129	9785.03
224.202	9846.26
224.275	9836
224.348	9809.9
224.42	9776.09
224.493	9707.7
224.566	9673.35
224.639	9697.48
224.712	9668.19
224.785	9647.71
224.858	9637.89
224.931	9617.8
225.004	9573.45
225.077	9571.62
225.15	9483.08
225.223	9473.02
225.296	9568.27
225.369	9515.01
225.442	9478.07
225.514	9496.99
225.587	9519.04
225.66	9518.75
225.733	9515.34
225.806	9521.36
225.879	9511
225.952	9477.5
226.025	9528.35
226.097	9582.4
226.17	9575.61
226.243	9506.18
226.316	9502.28
226.389	9510.51
226.461	9537.1
226.534	9562.77
226.607	9562.24
226.68	9652.27
226.753	9645.87
226.825	9549.74
226.898	9607.29
226.971	9607.87
227.044	9625.15
227.117	9637.58
227.189	9662.73
227.262	9708.49
227.335	9733.1
227.407	9724.48
227.48	9760.45
227.553	9778.46
227.626	9762.03
227.698	9767.43
227.771	9808.83
227.844	9792.74
227.916	9809.02
227.989	9762.78
228.062	9756.19
228.134	9848.2
228.207	9841.41
228.28	9840.64
228.352	9854.17
228.425	9859.9
228.498	9917.95
228.57	9902.49
228.643	9960.79
228.716	9959.68
228.788	9941.71
228.861	9937.32
228.934	10015.78
229.006	10025.8
229.079	10032.16
229.151	10018.67
229.224	9979.81
229.296	10013
229.369	10130.52
229.442	10183.42
229.514	10168.45
229.587	10226.15
229.659	10152.29
229.732	10172.19
229.804	10219.06
229.877	10308.78
229.949	10352.29
230.022	10403.52
230.094	10402.79
230.167	10389.69
230.239	10344.55
230.312	10339.21
230.384	10419.15
230.457	10414.81
230.529	10428.64
230.602	10426.71
230.674	10437.31
230.747	10488.98
230.819	10520.88
230.892	10389.88
230.964	10391.08
231.037	10427.19
231.109	10411.73
231.181	10448.68
231.254	10409.22
231.326	10394.87
231.399	10367.83
231.471	10336.08
231.544	10251.22
231.616	10299.72
231.688	10308.39
231.761	10297.27
231.833	10284.51
231.905	10191.03
231.978	10185.97
232.05	10168.92
232.122	10172.58
232.195	10147.14
232.267	10179.47
232.339	10153.02
232.412	10220.69
232.484	10197.47
232.556	10164.82
232.629	10245.97
232.701	10265.82
232.773	10281.19
232.846	10270.93
232.918	10278.06
232.99	10295.41
233.062	10342.24
233.135	10362.72
233.207	10324.99
233.279	10370.65
233.351	10411.21
233.424	10417.57
233.496	10394.16
233.568	10486.13
233.64	10447.93
233.713	10470.14
233.785	10469.37
233.857	10487.58
233.929	10434.21
234.001	10500.33
234.074	10575.9
234.146	10493.4
234.218	10495.23
234.29	10496.49
234.362	10486.81
234.434	10431.15
234.507	10393.24
234.579	10336.05
234.651	10311.14
234.723	10350.45
234.795	10369.15
234.867	10361.1
234.939	10428.17
235.012	10448.5
235.084	10450.04
235.156	10494.17
235.228	10470.52
235.3	10453.99
235.372	10467.67
235.444	10536.23
235.516	10457.1
235.588	10472.81
235.66	10491.21
235.732	10463.84
235.804	10679.58
235.876	10733.68
235.948	10810.63
236.02	10827.44
236.092	10841.41
236.164	10861.26
236.236	10858.57
236.308	10865.5
236.38	10897.88
236.452	10879.76
236.524	10903.9
236.596	10975.92
236.668	11015.48
236.74	11044.01
236.812	11086.94
236.884	11126.46
236.956	11145.01
237.028	11137.74
237.1	11117.98
237.172	11198.47
237.244	11282.9
237.316	11154.48
237.388	11134.34
237.46	11107.45
237.532	11176.7
237.604	11174.1
237.675	11256.56
237.747	11316.61
237.819	11311.26
237.891	11317.67
237.963	11303.6
238.035	11300.61
238.107	11185.13
238.178	11254.01
238.25	11262.3
238.322	11352.92
238.394	11300.72
238.466	11296
238.538	11348.14
238.609	11393.39
238.681	11333.62
238.753	11309.33
238.825	11337.53
238.897	11378.15
238.968	11473.69
239.04	11461.06
239.112	11583.9
239.184	11534.16
239.255	11524.37
239.327	11554.06
239.399	11583.46
239.471	11635.74
239.542	11677.77
239.614	11750.35
239.686	11655.01
239.758	11721.09
239.829	11683.49
239.901	11762.19
239.973	11781.28
240.044	11814.2
240.116	11828.51
240.188	11854.06
240.259	11873.82
240.331	11858.87
240.403	11899.51
240.474	11848.41
240.546	11842.05
240.618	11782.42
240.689	11789.75
240.761	11817.85
240.833	11892.8
240.904	11889.91
240.976	11897.43
241.048	11918.78
241.119	11965.4
241.191	12025.06
241.262	12101.71
241.334	12106.1
241.405	12108.6
241.477	12114.77
241.549	12128.99
241.62	12163.51
241.692	12209.78
241.763	12276.4
241.835	12307.06
241.906	12325.85
241.978	12294.33
242.049	12364.8
242.121	12434.79
242.192	12508.35
242.264	12470.65
242.335	12424.62
242.407	12473.6
242.478	12474.9
242.55	12499.72
242.621	12484.87
242.693	12483.67
242.764	12467.38
242.836	12479.19
242.907	12513.7
242.979	12546.48
243.05	12571.79
243.122	12596.47
243.193	12604.66
243.264	12528.5
243.336	12528.88
243.407	12569.28
243.479	12660.05
243.55	12673.98
243.622	12688.34
243.693	12687.52
243.764	12760.17
243.836	12734.91
243.907	12728.45
243.978	12736.26
244.05	12765.09
244.121	12707.82
244.192	12763.55
244.264	12723.49
244.335	12740.22
244.407	12689.22
244.478	12715.3
244.549	12711.34
244.62	12665.79
244.692	12660.25
244.763	12711.82
244.834	12707.97
244.906	12679.28
244.977	12706.91
245.048	12771.36
245.119	12753.14
245.191	12730.87
245.262	12663.67
245.333	12751.49
245.405	12772.75
245.476	12810.06
245.547	12831.51
245.618	12895.87
245.689	12905.89
245.761	12935.64
245.832	12943.88
245.903	12999.41
245.974	13035.08
246.045	13054.56
246.117	13150.63
246.188	13136.51
246.259	13120.12
246.33	13141.52
246.401	13163.26
246.473	13126.96
246.544	13115.44
246.615	13182.4
246.686	13189.54
246.757	13275.05
246.828	13255
246.899	13337.14
246.97	13308.6
247.042	13305.66
247.113	13359.99
247.184	13458.95
247.255	13461.08
247.326	13487.44
247.397	13498
247.468	13504.9
247.539	13521.09
247.61	13468.74
247.681	13517.23
247.752	13579.47
247.823	13552.96
247.894	13573.15
247.965	13547.8
248.037	13531.7
248.108	13468.84
248.179	13485.61
248.25	13484.21
248.321	13519.02
248.392	13467.97
248.463	13553.05
248.534	13545.92
248.605	13572.24
248.675	13544.23
248.746	13559.47
248.817	13585.3
248.888	13606.08
248.959	13541.29
249.03	13567.66
249.101	13577.11
249.172	13560.77
249.243	13479.73
249.314	13557.25
249.385	13558.89
249.456	13591.24
249.527	13587.43
249.598	13616.64
249.669	13621.03
249.739	13637.42
249.81	13652.36
249.881	13601.36
249.952	13598.9
250.023	13604.49
250.094	13545.58
250.165	13511.17
250.235	13508.13
250.306	13513.34
250.377	13475.25
250.448	13512.71
250.519	13446.33
250.59	13507.89
250.66	13511.94
250.731	13593.65
250.802	13583.96
250.873	13614.71
250.944	13641.76
251.014	13635.97
251.085	13743.61
251.156	13768.58
251.227	13821.7
251.297	13873.24
251.368	13933.83
251.439	13978.23
251.51	14029.71
251.58	14015.78
251.651	14009.66
251.722	14079.17
251.792	14016.94
251.863	14023.11
251.934	14096.23
252.005	14215.54
252.075	14226.97
252.146	14281.1
252.217	14334.32
252.287	14384.26
252.358	14393.61
252.429	14472.28
252.499	14459.22
252.57	14467.08
252.641	14525.12
252.711	14534.18
252.782	14494.51
252.852	14575.58
252.923	14578.09
252.994	14591.83
253.064	14645.63
253.135	14630.2
253.205	14600.07
253.276	14686.22
253.347	14764.41
253.417	14738.04
253.488	14720.2
253.558	14710.61
253.629	14714.8
253.699	14731.15
253.77	14761.56
253.841	14755.44
253.911	14764.93
253.982	14793.38
254.052	14822.68
254.123	14820.42
254.193	14819.74
254.264	14967.81
254.334	14934.46
254.405	14898.88
254.475	14865.57
254.546	14873.72
254.616	14936.82
254.687	14975.38
254.757	15005.32
254.827	15000.54
254.898	15025.95
254.968	15034.67
255.039	15022.86
255.109	15065.43
255.18	15040.02
255.25	14964.83
255.321	15003.44
255.391	14954.71
255.461	15046.1
255.532	14964.16
255.602	14965.89
255.673	14908.82
255.743	14863.08
255.813	14792.65
255.884	14842.54
255.954	14890.65
256.024	14963.44
256.095	14973.61
256.165	14932.01
256.235	14950.61
256.306	14939.24
256.376	14991.63
256.446	15034.58
256.517	15073.48
256.587	15116.04
256.657	15135.52
256.728	15161.59
256.798	15166.32
256.868	15170.17
256.938	15136.24
257.009	15185.5
257.079	15218.23
257.149	15333.58
257.219	15272.08
257.29	15317.49
257.36	15260.17
257.43	15290.78
257.5	15221.8
257.571	15213.13
257.641	15266.2
257.711	15236.46
257.781	15272.18
257.852	15289.63
257.922	15227.2
257.992	15232.6
258.062	15225.28
258.132	15262.34
258.202	15269.86
258.273	15285.96
258.343	15360.72
258.413	15349.2
258.483	15359.03
258.553	15330.64
258.623	15297.96
258.693	15333.25
258.764	15407.09
258.834	15486.92
258.904	15510.78
258.974	15510.25
259.044	15524.61
259.114	15546.88
259.184	15571.89
259.254	15586.64
259.324	15531.65
259.394	15585.25
259.464	15670.75
259.535	15684.78
259.605	15691.09
259.675	15687.43
259.745	15728.06
259.815	15709.65
259.885	15719.48
259.955	15834.67
260.025	15830.62
260.095	15847.68
260.165	15886.96
260.235	15950.97
260.305	15937.9
260.375	15902.96
260.445	15995.6
260.515	16070.07
260.585	16120.72
260.655	16138.7
260.725	16185.17
260.795	16229.17
260.865	16299.73
260.934	16261.75
261.004	16291.44
261.074	16293.66
261.144	16364.13
261.214	16394.16
261.284	16397.05
261.354	16436.43
261.424	16385.15
261.494	16462.56
261.564	16468.35
261.634	16495.67
261.703	16426.8
261.773	16451.48
261.843	16490.52
261.913	16481.22
261.983	16421.21
262.053	16446.56
262.123	16441.98
262.192	16400.48
262.262	16442.22
262.332	16392.24
262.402	16424.58
262.472	16433.79
262.541	16368.77
262.611	16409.35
262.681	16399.18
262.751	16436.63
262.821	16439.13
262.89	16406.7
262.96	16437.16
263.03	16522.94
263.1	16541.16
263.169	16558.85
263.239	16597.07
263.309	16665.84
263.379	16701.6
263.448	16721.12
263.518	16743.24
263.588	16760.06
263.657	16834.09
263.727	16873.42
263.797	16894.14
263.867	16894.1
263.936	16851.88
264.006	16925.05
264.076	16921.91
264.145	16908.85
264.215	16893.48
264.285	16947.31
264.354	16908.37
264.424	16882.73
264.494	16823.55
264.563	16819.5
264.633	16909.67
264.702	16934.1
264.772	16870.68
264.842	16865.09
264.911	16898.3
264.981	16853.05
265.05	16864.32
265.12	16856.56
265.19	16867.79
265.259	16912.85
265.329	16953.1
265.398	16990.35
265.468	17089.92
265.537	17090.69
265.607	17133.25
265.676	17191.61
265.746	17205.1
265.815	17266.55
265.885	17279.52
265.955	17268.82
266.024	17269.83
266.094	17193.88
266.163	17250.79
266.232	17324.09
266.302	17333.44
266.371	17358.26
266.441	17390.75
266.51	17437.88
266.58	17448.34
266.649	17434.99
266.719	17486.6
266.788	17517.06
266.858	17586.36
266.927	17515.47
266.996	17537.88
267.066	17560.53
267.135	17520.62
267.205	17568.91
267.274	17592.72
267.343	17657.2
267.413	17678.21
267.482	17741.44
267.552	17817.63
267.621	17770.98
267.69	17724.38
267.76	17750.65
267.829	17773.92
267.898	17783.51
267.968	17757.44
268.037	17799.08
268.106	17850.79
268.176	17821.44
268.245	17825.3
268.314	17814.69
268.384	17880.09
268.453	17895.61
268.522	17924.23
268.592	17994.35
268.661	17973.63
268.73	18008.81
268.799	17983.51
268.869	18072.23
268.938	18019.56
269.007	18002.45
269.076	18034.74
269.146	18098.98
269.215	18132.66
269.284	18214.2
269.353	18216.51
269.422	18245.09
269.492	18243.02
269.561	18155.17
269.63	18179.99
269.699	18176.13
269.768	18199.5
269.838	18223.65
269.907	18270.2
269.976	18239.84
270.045	18186.06
270.114	18221.67
270.183	18223.74
270.253	18259.21
270.322	18201.81
270.391	18234.25
270.46	18306.63
270.529	18346.87
270.598	18385.18
270.667	18389.47
270.736	18356.12
270.806	18394.72
270.875	18449.22
270.944	18456.26
271.013	18595.53
271.082	18633.07
271.151	18674.51
271.22	18631.05
271.289	18642.95
271.358	18658.76
271.427	18707.67
271.496	18737.16
271.565	18742.27
271.634	18766.7
271.703	18906.65
271.772	18983.23
271.841	19001.54
271.91	18962.41
271.979	18987.71
272.048	18952.82
272.117	19006.12
272.186	19012.29
272.255	19063.17
272.324	19107.99
272.393	19142.4
272.462	19129.53
272.531	19149.1
272.6	19163.22
272.669	19244.56
272.738	19256.32
272.807	19286.63
272.876	19266.15
272.945	19423.01
273.013	19490.34
273.082	19561.08
273.151	19466.24
273.22	19498.04
273.289	19522.33
273.358	19614.42
273.427	19622.47
273.496	19686.8
273.564	19724.78
273.633	19777.45
273.702	19758.9
273.771	19770.7
273.84	19803.13
273.909	19850.55
273.977	19891.32
274.046	19903.71
274.115	19966.55
274.184	19951.42
274.253	19973.78
274.322	20060.76
274.39	19975.56
274.459	19970.02
274.528	19915.18
274.597	19933.92
274.665	19965.83
274.734	20032.91
274.803	20047.61
274.872	20069.2
274.94	20063.94
275.009	20303.59
275.078	20301.37
275.147	20342.38
275.215	20370
275.284	20437.23
275.353	20443.06
275.421	20409.18
275.49	20511.16
275.559	20517.72
275.627	20549.28
275.696	20563.55
275.765	20594.92
275.833	20623.11
275.902	20665.04
275.971	20751.4
276.039	20842.49
276.108	20902.25
276.177	20942.16
276.245	20945
276.314	20975.08
276.383	21036.04
276.451	20854.9
276.52	20905.79
276.588	20993.61
276.657	21058.2
276.725	21071.4
276.794	21115.65
276.863	21202.93
276.931	21170.73
277	21239.9
277.068	21319.42
277.137	21418.33
277.205	21455.49
277.274	21559.45
277.342	21634.74
277.411	21613.44
277.48	21614.69
277.548	21618.41
277.617	21665.02
277.685	21697.5
277.754	21754.67
277.822	21778.91
277.89	21876.64
277.959	21899.24
278.027	21874.9
278.096	21876.44
278.164	22018.2
278.233	22032.27
278.301	22030.05
278.37	22084.47
278.438	22076.28
278.507	22122.99
278.575	22075.6
278.643	22096.52
278.712	22078.98
278.78	22069.77
278.849	22154.84
278.917	22237.19
278.985	22264.42
279.054	22306.75
279.122	22384.85
279.191	22421.73
279.259	22437.3
279.327	22394.14
279.396	22496.02
279.464	22527.64
279.532	22599.29
279.601	22615.98
279.669	22642.06
279.737	22744.27
279.806	22799.52
279.874	22880.05
279.942	22917.22
280.011	22958.19
280.079	23039.2
280.147	23137.26
280.215	23195.17
280.284	23218.12
280.352	23214.65
280.42	23284.62
280.488	23293.25
280.557	23307.96
280.625	23360.09
280.693	23423.19
280.761	23474.84
280.83	23463.55
280.898	23550.45
280.966	23534.82
281.034	23463.54
281.102	23476.65
281.171	23495.56
281.239	23569.22
281.307	23588.37
281.375	23603.75
281.443	23738.84
281.512	23769.42
281.58	23831.66
281.648	23825.63
281.716	23869.12
281.784	23914.22
281.852	23937.71
281.92	23980.78
281.989	24070.02
282.057	24058.49
282.125	24271.39
282.193	24304.91
282.261	24356.91
282.329	24383.59
282.397	24439.92
282.465	24501.07
282.533	24591.79
282.601	24593.33
282.67	24560.87
282.738	24575.67
282.806	24661.25
282.874	24664.63
282.942	24717.99
283.01	24747.96
283.078	24816.85
283.146	24853.8
283.214	24921.98
283.282	24970.27
283.35	25058.39
283.418	25066.06
283.486	25133.7
283.554	25012.06
283.622	25062.15
283.69	25102.54
283.758	25135.49
283.826	25187.03
283.894	25268.73
283.962	25386.08
284.03	25483.65
284.098	25526.54
284.165	25557.08
284.233	25591.54
284.301	25609.93
284.369	25624.07
284.437	25641.02
284.505	25676.59
284.573	25786.1
284.641	25798.03
284.709	25873.73
284.777	25859.39
284.845	25950.74
284.912	26010.84
284.98	26080.49
285.048	26109.7
285.116	26178.16
285.184	26266.51
285.252	26326.32
285.319	26321.3
285.387	26337.82
285.455	26330.15
285.523	26409.9
285.591	26447.84
285.659	26498.39
285.726	26589.27
285.794	26591.64
285.862	26635.14
285.93	26675.41
285.997	26697.33
286.065	26721.33
286.133	26729.11
286.201	26771.74
286.269	26755.7
286.336	26771.83
286.404	26787.81
286.472	26869.2
286.539	26834.34
286.607	26819.56
286.675	26855.83
286.743	26931.65
286.81	26961.03
286.878	27055.36
286.946	27071.59
287.013	27114.08
287.081	27158.23
287.149	27140.26
287.216	27257.54
287.284	27278.46
287.352	27334.68
287.419	27356.23
287.487	27459.28
287.555	27519.73
287.622	27551.9
287.69	27618.48
287.758	27707.38
287.825	27737.04
287.893	27733.51
287.96	27804.41
288.028	27895.73
288.096	27961.61
288.163	28009.84
288.231	28001.91
288.298	28043
288.366	28139.67
288.433	28176.33
288.501	28198.42
288.569	28261.19
288.636	28277.24
288.704	28374.93
288.771	28437.86
288.839	28465.07
288.906	28483.49
288.974	28560.14
289.041	28605.22
289.109	28614.21
289.176	28678.77
289.244	28751.18
289.311	28842.31
289.379	28926.32
289.446	28980.92
289.514	29012.5
289.581	29071.16
289.649	29141.5
289.716	29191.17
289.783	29218.5
289.851	29343.29
289.918	29388.88
289.986	29466.7
290.053	29523.96
290.121	29561.69
290.188	29620.85
290.255	29768.64
290.323	29800.94
290.39	29829.83
290.458	29910.59
290.525	30015.27
290.592	30055.62
290.66	30096.54
290.727	30128.67
290.794	30221.97
290.862	30264.7
290.929	30329.53
290.996	30357.79
291.064	30435.4
291.131	30525.29
291.198	30606.02
291.266	30640.97
291.333	30700.13
291.4	30775.55
291.468	30886.61
291.535	30909.45
291.602	30963.66
291.669	30984.97
291.737	31041.83
291.804	31092.27
291.871	31177.22
291.938	31243.37
292.006	31372.65
292.073	31473.29
292.14	31547.37
292.207	31563.88
292.275	31608.08
292.342	31675.34
292.409	31819.97
292.476	31939.81
292.543	31951.2
292.611	31986.99
292.678	32086.72
292.745	32214.58
292.812	32280.56
292.879	32305.13
292.946	32364.05
293.014	32450.86
293.081	32521.94
293.148	32613.72
293.215	32700.64
293.282	32738.18
293.349	32812.52
293.416	32797.83
293.484	32882.79
293.551	32970.59
293.618	33070.65
293.685	33204.61
293.752	33237.55
293.819	33271.15
293.886	33273.96
293.953	33330.85
294.02	33418.23
294.087	33490.37
294.154	33511.12
294.221	33619.84
294.288	33673.35
294.356	33804.41
294.423	33866.18
294.49	33872.43
294.557	33970.22
294.624	33993.49
294.691	34114.65
294.758	34159.84
294.825	34223.11
294.892	34243.96
294.959	34291.09
295.026	34355.4
295.093	34385.67
295.16	34428.71
295.226	34483.81
295.293	34612.79
295.36	34678.58
295.427	34775.9
295.494	34867.5
295.561	34941.94
295.628	35059.26
295.695	35174.28
295.762	35223.18
295.829	35321.63
295.896	35439.19
295.963	35515.52
296.03	35605.74
296.096	35673.72
296.163	35765.14
296.23	35887.61
296.297	35989.44
296.364	36038.44
296.431	36109
296.498	36138.89
296.564	36278.47
296.631	36343.69
296.698	36343.06
296.765	36481.61
296.832	36496.31
296.899	36494.08
296.965	36617.8
297.032	36592.5
297.099	36691.84
297.166	36777.42
297.233	36806.01
297.299	36837.36
297.366	36896.44
297.433	36955.61
297.5	37041.8
297.566	37102.24
297.633	37140.84
297.7	37196.91
297.767	37256.23
297.833	37342.17
297.9	37416.63
297.967	37421.19
298.033	37509.46
298.1	37673.9
298.167	37691.62
298.234	37757.36
298.3	37850.53
298.367	37880.59
298.434	37963.69
298.5	37979.23
298.567	38009.68
298.634	38063.72
298.7	38174.24
298.767	38225.77
298.834	38328.88
298.9	38363.61
298.967	38385.66
299.033	38470.03
299.1	38576.6
299.167	38675.38
299.233	38705.69
299.3	38806.61
299.366	38915.3
299.433	39014.41
299.5	38961.6
299.566	39027.81
299.633	39134.05
299.699	39227.96
299.766	39271.04
299.832	39317.54
299.899	39401.93
299.965	39499.14
300.032	39531.73
300.099	39614.92
300.165	39696.3
300.232	39728.95
300.298	39769.13
300.365	39858.32
300.431	39915.61
300.498	39933.25
300.564	40004.34
300.631	40102.15
300.697	40190.5
300.763	40238.02
300.83	40275.44
300.896	40375.68
300.963	40464.17
301.029	40541.84
301.096	40594.62
301.162	40688.84
301.229	40741.23
301.295	40760.67
301.361	40820.6
301.428	40897.52
301.494	40879.05
301.561	40918.66
301.627	40978.15
301.693	41048.42
301.76	41125.26
301.826	41139.55
301.892	41245.18
301.959	41322.37
302.025	41349.55
302.092	41373.61
302.158	41457.21
302.224	41520.85
302.291	41555.36
302.357	41583.31
302.423	41596.19
302.49	41616.13
302.556	41697.08
302.622	41746.03
302.688	41816.42
302.755	41915.81
302.821	41974.72
302.887	42070.29
302.954	42136.6
303.02	42223.14
303.086	42280.8
303.152	42317.27
303.219	42366.08
303.285	42412.76
303.351	42480.75
303.417	42526.36
303.483	42553.58
303.55	42569.92
303.616	42603.09
303.682	42640.96
303.748	42658.99
303.815	42753.97
303.881	42832.56
303.947	42838.63
304.013	42903.99
304.079	42943.87
304.145	42905.06
304.212	42970.12
304.278	42990.54
304.344	43015.64
304.41	43012.38
304.476	43025.07
304.542	43057.56
304.608	43125.59
304.674	43108.71
304.741	43124.38
304.807	43191.3
304.873	43258.32
304.939	43360.12
305.005	43334.98
305.071	43378.21
305.137	43455.82
305.203	43422.35
305.269	43464.58
305.335	43553.61
305.401	43573.75
305.467	43608.58
305.533	43692.05
305.599	43773
305.666	43846.74
305.732	43905.51
305.798	43994.82
305.864	44143.52
305.93	44221.8
305.996	44278.87
306.062	44340.89
306.128	44369.16
306.194	44363.08
306.259	44403.12
306.325	44421.08
306.391	44521
306.457	44594.99
306.523	44644.23
306.589	44769.88
306.655	44789.15
306.721	44756.35
306.787	44757.66
306.853	44848.33
306.919	44830.38
306.985	44820.69
307.051	44835.82
307.117	44848.08
307.183	44861.42
307.248	44785.83
307.314	44830.08
307.38	44867.21
307.446	44928.93
307.512	44948.93
307.578	45012.09
307.644	45032.33
307.709	45080.03
307.775	45094.39
307.841	45119.36
307.907	45153.04
307.973	45125.44
308.039	45164.33
308.104	45229.49
308.17	45275.87
308.236	45249.19
308.302	45303.25
308.368	45310.11
308.433	45351.19
308.499	45371.05
308.565	45373.33
308.631	45441.57
308.696	45396.89
308.762	45381.26
308.828	45398.06
308.894	45378.45
308.959	45357.13
309.025	45362.24
309.091	45383.42
309.156	45406.93
309.222	45456.4
309.288	45447.98
309.354	45414.45
309.419	45439.47
309.485	45441.56
309.551	45502.42
309.616	45511.47
309.682	45551.25
309.748	45570.23
309.813	45592.57
309.879	45607.57
309.945	45615.89
310.01	45624.12
310.076	45687.4
310.141	45720.12
310.207	45719.58
310.273	45777.41
310.338	45828.42
310.404	45831.68
310.469	45819.17
310.535	45824.72
310.601	45787.42
310.666	45853.74
310.732	45932.11
310.797	45931.82
310.863	45921.01
310.928	45928.9
310.994	45969.8
311.059	45996.69
311.125	46035.93
311.191	46112.11
311.256	46132.41
311.322	46196.83
311.387	46172.2
311.453	46943.74
311.518	46963.56
311.584	46994.92
311.649	47053.56
311.715	47056.77
311.78	47095.77
311.846	47103.66
311.911	47169.95
311.976	47215.28
312.042	47207.1
312.107	47200.23
312.173	47213.72
312.238	47241.04
312.304	47261.35
312.369	47267.97
312.434	47253.21
312.5	47270.45
312.565	47195.92
312.631	47234.01
312.696	47238.78
312.761	47284.89
312.827	46538.92
312.892	46648.92
312.958	46676.4
313.023	46699.4
313.088	46726.82
313.154	46725.26
313.219	46728.67
313.284	46716.53
313.35	46741.72
313.415	46733.78
313.48	46749.95
313.546	46795.6
313.611	46855.41
313.676	46869.2
313.741	46885.47
313.807	46953.59
313.872	46991.24
313.937	47051.44
314.003	47127.72
314.068	47178.2
314.133	47246.61
314.198	47255.04
314.264	47207.02
314.329	47198.54
314.394	47209.5
314.459	47247.84
314.525	47344.36
314.59	47370.37
314.655	47376.07
314.72	47419.35
314.785	47473.09
314.851	47482.05
314.916	47457.25
314.981	47436.69
315.046	47439.12
315.111	47432.25
315.176	47436.93
315.242	47482.22
315.307	47511.85
315.372	47452.38
315.437	47435.18
315.502	47425.18
315.567	47498.25
315.632	47488.21
315.698	47531
315.763	47545.97
315.828	47543.82
315.893	47546.95
315.958	47574.23
316.023	47564.14
316.088	47527.59
316.153	47469.52
316.218	47475.71
316.283	47431.34
316.348	47381.08
316.413	47377.81
316.479	47339.49
316.544	47217.71
316.609	47106.53
316.674	46971.67
316.739	46860.8
316.804	46751.27
316.869	46621.18
316.934	46470.06
316.999	46348.41
317.064	46154.27
317.129	45974.13
317.194	45809.39
317.259	45615.38
317.324	45404.33
317.389	45224.43
317.454	45060.04
317.518	44914.25
317.583	44784.71
317.648	44662.27
317.713	44515.68
317.778	44266.18
317.843	44123.67
317.908	43949.82
317.973	43766.36
318.038	43633.38
318.103	43465.93
318.168	43293.12
318.233	43133.97
318.297	42900.78
318.362	42706.65
318.427	42518.26
318.492	42386.91
318.557	42173.26
318.622	42018.48
318.687	41872.8
318.751	41667.4
318.816	41490
318.881	41300.58
318.946	41037.41
319.011	40805.52
319.075	40593.78
319.14	40410.35
319.205	40183.31
319.27	39985.47
319.335	39753.67
319.399	39525.6
319.464	39346.09
319.529	39090.25
319.594	38874.01
319.658	38699.4
319.723	38474.58
319.788	38289.65
319.853	37997.08
319.917	37805.74
319.982	37523.91
320.047	37294.84
320.112	37111.25
320.176	36833.23
320.241	36603.1
320.306	36410.89
320.37	36189.69
320.435	35976.65
320.5	35774.06
320.564	35535.2
320.629	35300.28
320.694	35092.52
320.758	34850.69
320.823	34595.53
320.888	34402.06
320.952	34119.43
321.017	33862.9
321.082	33617.53
321.146	33392.26
321.211	33182.41
321.275	32945.94
321.34	32691.68
321.405	32441.07
321.469	32179.1
321.534	31935.92
321.598	31675.01
321.663	31450
321.727	31233.65
321.792	30965.22
321.857	30707.68
321.921	30469.32
321.986	30209.49
322.05	29907.46
322.115	29675.35
322.179	29414.05
322.244	29114.54
322.308	28899.53
322.373	28640.16
322.437	28396.11
322.502	28214.45
322.566	27939.56
322.631	27693.94
322.695	27456.54
322.76	27194.06
322.824	26962.16
322.889	26704.9
322.953	26425.37
323.018	26086.46
323.082	25757.02
323.146	25460.57
323.211	25163.71
323.275	24887.51
323.34	24616.87
323.404	24390.59
323.468	24108.39
323.533	23848.31
323.597	23577.06
323.662	23273.36
323.726	23029.14
323.79	22754.33
323.855	22377.57
323.919	22095.24
323.983	21823.84
324.048	21413.11
324.112	21477.86
324.177	20633.15
324.241	19504.23
324.305	18405.15
324.37	17321.18
324.434	16251.87
324.498	15963.08
324.562	15634.42
324.627	15261.02
324.691	14892.64
324.755	14462.52
324.82	13988.69
324.884	13475.21
324.948	12956.47
325.012	12341.91
325.077	11569.15
