Data from 20250701_urea_2M_exp3_MAYP1162681_01-39-49-993.txt Node
Date: Wed Jul 02 01:39:49 BST 2025
User: adleo
Spectrometer: MAYP116268
Trigger mode: 0
Integration Time (sec): 4.000000E0
Scans to average: 1
Electric dark correction enabled: true
Nonlinearity correction enabled: true
Boxcar width: 10
XAxis mode: Wavelengths
Number of Pixels in Spectrum: 2068
>>>>>Begin Spectral Data<<<<<
179.565	3686.17
179.642	3880.41
179.718	4028.8
179.795	4159.52
179.871	4273.08
179.948	4340.1
180.024	4410.54
180.101	4491.84
180.177	4545.29
180.254	4625.23
180.33	4704.51
180.407	4974.49
180.483	5262.44
180.56	5550.73
180.636	5814.57
180.712	5777.66
180.789	5812.39
180.865	5850.69
180.942	5884.45
181.018	5923.31
181.095	5972.75
181.171	5993.52
181.248	5994.58
181.324	6047.43
181.4	6074.11
181.477	6106.89
181.553	6151.11
181.63	6223.87
181.706	6275.91
181.782	6304.26
181.859	6303.49
181.935	6318.71
182.011	6305.36
182.088	6356.82
182.164	6426.86
182.24	6476.42
182.317	6506.41
182.393	6500.41
182.469	6547.37
182.546	6594.76
182.622	6610.26
182.698	6594.27
182.775	6629.42
182.851	6681.04
182.927	6657.41
183.003	6641.72
183.08	6624.82
183.156	6659.01
183.232	6650.22
183.308	6607.63
183.385	6635.52
183.461	6695.65
183.537	6698.2
183.613	6741.61
183.69	6714.72
183.766	6678.34
183.842	6701.45
183.918	6716.77
183.995	6760.75
184.071	6770.17
184.147	6747.5
184.223	6710.54
184.299	6749.8
184.375	6714.21
184.452	6735.99
184.528	6861.87
184.604	6897.3
184.68	6940.23
184.756	6959.89
184.832	6973.34
184.908	6991.82
184.985	6989.03
185.061	6933.51
185.137	6966.52
185.213	6924.49
185.289	6926.22
185.365	6904.81
185.441	6900.38
185.517	6945.37
185.593	6932.3
185.669	6928.32
185.745	6968.05
185.822	7022.58
185.898	6998.07
185.974	7030.87
186.05	7001.36
186.126	6929.38
186.202	6906.91
186.278	6894.18
186.354	6861.17
186.43	6881.45
186.506	6880.25
186.582	6881.45
186.658	6903.87
186.734	6831.94
186.81	6842.94
186.886	6855.47
186.962	6894.18
187.038	6881.79
187.114	6855.59
187.19	6887.11
187.266	6852.1
187.341	6847.54
187.417	6824.43
187.493	6818.91
187.569	6831.35
187.645	6811.33
187.721	6772.64
187.797	6803.62
187.873	6819.62
187.949	6800.75
188.025	6778.11
188.101	6782.48
188.176	6796.89
188.252	6781.38
188.328	6808.64
188.404	6810.46
188.48	6795.05
188.556	6770.93
188.632	6772.18
188.707	6779.01
188.783	6763
188.859	6749.8
188.935	6713.87
189.011	6736.73
189.086	6712.96
189.162	6682.36
189.238	6676.08
189.314	6664.02
189.39	6637.75
189.465	6612.77
189.541	6670.13
189.617	6622.4
189.693	6608.14
189.768	6622.03
189.844	6707.77
189.92	6688.76
189.996	6715.66
190.071	6754.33
190.147	6751.68
190.223	6779.36
190.298	6748.03
190.374	6703.27
190.45	6743.07
190.526	6775.93
190.601	6761.76
190.677	6776.07
190.753	6871.2
190.828	6887.34
190.904	6939.9
190.98	6996.69
191.055	7034.51
191.131	7003.89
191.207	7073.45
191.282	7107.16
191.358	7070.17
191.433	7015.94
191.509	7054.53
191.585	7043.63
191.66	7042.33
191.736	7068.08
191.811	7040.93
191.887	7099.18
191.963	7179.76
192.038	7199.7
192.114	7197.78
192.189	7211.66
192.265	7200.18
192.34	7125.17
192.416	7118.69
192.491	7104.55
192.567	7112.2
192.642	7118.06
192.718	7120.08
192.793	7077.08
192.869	7064.06
192.944	7071.31
193.02	7098.03
193.095	7118.69
193.171	7140.12
193.246	7146.61
193.322	7135.08
193.397	7133.78
193.473	7086.05
193.548	7025.88
193.624	7040.4
193.699	7032.66
193.775	7080.92
193.85	7082.75
193.925	7112.59
194.001	7106.26
194.076	7078.49
194.152	7042.48
194.227	7015.47
194.302	6983.01
194.378	6997.61
194.453	6986.23
194.529	7030.34
194.604	6981.09
194.679	6952.84
194.755	6887.53
194.83	6918.93
194.905	6914.7
194.981	6947.04
195.056	6924.8
195.131	6939.36
195.207	6932.05
195.282	6901.17
195.357	6839.31
195.433	6892.88
195.508	6850.16
195.583	6877.2
195.659	6925.21
195.734	6948.66
195.809	6945.97
195.884	6975.12
195.96	6973.39
196.035	7027.87
196.11	7014.8
196.185	7055.25
196.261	7070.67
196.336	7174.74
196.411	7126.18
196.486	7140.65
196.561	7112.63
196.637	7146.01
196.712	7211.07
196.787	7223.37
196.862	7278.14
196.937	7313.02
197.013	7331.34
197.088	7365.07
197.163	7437.25
197.238	7498.99
197.313	7495.48
197.388	7545.09
197.464	7649.36
197.539	7687.23
197.614	7662.48
197.689	7698.68
197.764	7751.16
197.839	7814.29
197.914	7791.64
197.989	7875.5
198.065	7918.2
198.14	8092.01
198.215	8174.79
198.29	8210.5
198.365	8252.4
198.44	8289.53
198.515	8386.72
198.59	8437.87
198.665	8526.74
198.74	8559.9
198.815	8560.67
198.89	8642.27
198.965	8738.21
199.04	8725.94
199.115	8780.16
199.19	8921.29
199.265	8931.44
199.34	8963.6
199.415	9075.03
199.49	9147.06
199.565	9174.98
199.64	9261.96
199.715	9251.7
199.79	9273.75
199.865	9294.17
199.94	9291.71
200.015	9395.53
200.09	9407.57
200.165	9429.82
200.24	9453.03
200.315	9581.43
200.39	9636.09
200.464	9649.43
200.539	9657.62
200.614	9703.6
200.689	9782.49
200.764	9802.68
200.839	9864.92
200.914	9886.78
200.989	9856.28
201.063	9906.27
201.138	9848.95
201.213	9848.09
201.288	9787.5
201.363	9802.86
201.438	9798.43
201.512	9850.62
201.587	9788.82
201.662	9801.68
201.737	9840.79
201.812	9871.14
201.886	9755.74
201.961	9778.48
202.036	9738.62
202.111	9726.67
202.186	9632.34
202.26	9574.06
202.335	9505.76
202.41	9484.72
202.485	9425.22
202.559	9351.31
202.634	9258.19
202.709	9290.24
202.784	9222.31
202.858	9220.96
202.933	9161.17
203.008	9137.09
203.082	9069.32
203.157	9062.63
203.232	8916.45
203.306	8839.02
203.381	8724.63
203.456	8651.33
203.53	8578.02
203.605	8515.73
203.68	8428.26
203.754	8405.57
203.829	8354.31
203.904	8282.34
203.978	8241.43
204.053	8256.92
204.127	8219.45
204.202	8217.82
204.277	8152.54
204.351	8135.03
204.426	8107.4
204.5	8077.29
204.575	7963.34
204.65	8001.74
204.724	7980.03
204.799	8011.13
204.873	8005.98
204.948	7998.14
205.022	7957.47
205.097	7927.62
205.171	7968.98
205.246	8005.12
205.32	8000.5
205.395	7999.49
205.469	7972.1
205.544	7989.18
205.618	7930.11
205.693	7969.56
205.767	7929.02
205.842	8003.97
205.916	7981.84
205.991	7948.7
206.065	7972.85
206.14	8028.39
206.214	8006.3
206.289	7980.42
206.363	8020.48
206.438	8028.13
206.512	8059.79
206.586	8124.23
206.661	8153.54
206.735	8081.68
206.81	8080.81
206.884	8132.89
206.958	8089.18
207.033	8147.59
207.107	8178.35
207.181	8285.18
207.256	8262.33
207.33	8325.78
207.405	8367.57
207.479	8435.07
207.553	8458.5
207.628	8399.07
207.702	8438.56
207.776	8414.65
207.851	8428.21
207.925	8480.54
207.999	8464.27
208.073	8456.72
208.148	8462.93
208.222	8417.74
208.296	8527.09
208.371	8581.89
208.445	8618.66
208.519	8714.06
208.593	8753.19
208.668	8736.34
208.742	8741.3
208.816	8748.51
208.89	8795.27
208.965	8784
209.039	8802.48
209.113	8866.41
209.187	8943.26
209.261	8927.67
209.336	8997.02
209.41	9065.96
209.484	9063.6
209.558	9139.58
209.632	9181.11
209.707	9224.2
209.781	9299.06
209.855	9350.3
209.929	9407.39
210.003	9427.08
210.077	9426.99
210.151	9592.92
210.226	9703.28
210.3	9788.95
210.374	9867.13
210.448	9879.51
210.522	9921.81
210.596	9967.37
210.67	10002.97
210.744	10156.25
210.818	10266.37
210.892	10333.09
210.966	10311.52
211.041	10363.64
211.115	10348.51
211.189	10430.5
211.263	10479.87
211.337	10504.44
211.411	10552.91
211.485	10536.77
211.559	10573.57
211.633	10580.5
211.707	10472.21
211.781	10496.7
211.855	10379.72
211.929	10351.6
212.003	10285.68
212.077	10314.16
212.151	10348.61
212.225	10368.46
212.299	10326.29
212.373	10285.92
212.447	10267.37
212.52	10365.12
212.594	10372.16
212.668	10406.65
212.742	10353.75
212.816	10333.56
212.89	10305.77
212.964	10293.62
213.038	10294.64
213.112	10331.26
213.186	10379.18
213.26	10297.47
213.333	10141.31
213.407	10158.55
213.481	10158.69
213.555	10191.19
213.629	10145.75
213.703	10082.44
213.777	10067.31
213.85	9996.26
213.924	10096.38
213.998	10089.83
214.072	10052
214.146	9999.49
214.219	9983.25
214.293	9958.5
214.367	9947.61
214.441	9972.52
214.515	9924.68
214.588	9825.8
214.662	9700
214.736	9614.57
214.81	9625.5
214.883	9640.51
214.957	9589.77
215.031	9534.62
215.105	9444.84
215.178	9377.71
215.252	9336.64
215.326	9234.57
215.4	9151.21
215.473	8972.25
215.547	8884.94
215.621	8814.77
215.694	8808.75
215.768	8705.11
215.842	8641.01
215.915	8571.63
215.989	8455.72
216.063	8396.64
216.136	8380.85
216.21	8355.02
216.284	8366.24
216.357	8336.5
216.431	8292.52
216.504	8288.87
216.578	8339.21
216.652	8348.15
216.725	8327.46
216.799	8331.16
216.873	8315.63
216.946	8320.96
217.02	8277.98
217.093	8247.87
217.167	8154.93
217.24	8069.37
217.314	8034.56
217.387	7984.24
217.461	7937.05
217.535	7957.64
217.608	7892.76
217.682	7862.36
217.755	7875.01
217.829	7817.61
217.902	7808.09
217.976	7791.16
218.049	7739.61
218.123	7667.19
218.196	7666.91
218.27	7623.53
218.343	7549.59
218.417	7546.46
218.49	7520.89
218.563	7563.34
218.637	7567.95
218.71	7636.15
218.784	7664.62
218.857	7699.23
218.931	7720.95
219.004	7732.88
219.077	7757.9
219.151	7779.1
219.224	7772.8
219.298	7765.82
219.371	7809.07
219.444	7763.12
219.518	7765.96
219.591	7781.77
219.665	7887.65
219.738	7900.93
219.811	7883.48
219.885	7930.42
219.958	7956.06
220.031	7963.22
220.105	7987.32
220.178	7990.4
220.251	7966.82
220.325	7987.85
220.398	8008.15
220.471	8032.82
220.544	8066.2
220.618	8038.15
220.691	8061.38
220.764	8079.27
220.838	8106.06
220.911	8088.84
220.984	8178.53
221.057	8223.74
221.131	8248.46
221.204	8146.52
221.277	8213.6
221.35	8343.17
221.424	8336.87
221.497	8349.57
221.57	8368.9
221.643	8403.99
221.716	8459.87
221.79	8468.24
221.863	8479.55
221.936	8486.77
222.009	8498.26
222.082	8532.25
222.155	8539.7
222.229	8608.54
222.302	8638.75
222.375	8646.93
222.448	8684.52
222.521	8686.88
222.594	8686.3
222.667	8661.39
222.74	8721.24
222.814	8714.94
222.887	8697.12
222.96	8756.08
223.033	8803.31
223.106	8835.55
223.179	8860.59
223.252	8865.93
223.325	8891.87
223.398	8905.74
223.471	8931.77
223.544	8956.65
223.617	8967.43
223.69	8992.41
223.763	8950.48
223.837	8975.56
223.91	9003.19
223.983	8958.05
224.056	8927.68
224.129	8950.83
224.202	9008.28
224.275	8998.6
224.348	8966.35
224.42	8929.24
224.493	8866.18
224.566	8841.14
224.639	8854.28
224.712	8824.52
224.785	8811.28
224.858	8803.77
224.931	8783.36
225.004	8749.48
225.077	8748.42
225.15	8661.81
225.223	8665.57
225.296	8746.52
225.369	8689.06
225.442	8660.75
225.514	8682.6
225.587	8702.23
225.66	8701.26
225.733	8694.77
225.806	8705.74
225.879	8704.15
225.952	8679.09
226.025	8721.44
226.097	8766.56
226.17	8760.11
226.243	8697.36
226.316	8696.45
226.389	8700.93
226.461	8726.01
226.534	8747.13
226.607	8736.88
226.68	8816.99
226.753	8800.39
226.825	8718.38
226.898	8776.61
226.971	8773.05
227.044	8786.43
227.117	8796.87
227.189	8822.58
227.262	8866.59
227.335	8881.85
227.407	8873.29
227.48	8903.41
227.553	8917.9
227.626	8903.64
227.698	8913.66
227.771	8948.63
227.844	8925.91
227.916	8942.08
227.989	8903.09
228.062	8892.55
228.134	8980.86
228.207	8980.52
228.28	8982.21
228.352	8999.25
228.425	9005.65
228.498	9054.66
228.57	9038.88
228.643	9092.28
228.716	9088.81
228.788	9073.55
228.861	9069.4
228.934	9136.75
229.006	9145.56
229.079	9150.81
229.151	9137.8
229.224	9098.34
229.296	9125.88
229.369	9227.73
229.442	9276.33
229.514	9259.05
229.587	9310.8
229.659	9232.51
229.732	9245.75
229.804	9281.47
229.877	9355.3
229.949	9382.18
230.022	9431.22
230.094	9430.21
230.167	9413.88
230.239	9370.65
230.312	9361.12
230.384	9428.17
230.457	9423.74
230.529	9428.89
230.602	9433.99
230.674	9445.07
230.747	9488.72
230.819	9524.3
230.892	9403.54
230.964	9406.86
231.037	9438.57
231.109	9428.61
231.181	9471.36
231.254	9434.04
231.326	9421.91
231.399	9395.8
231.471	9374.7
231.544	9297.54
231.616	9345.58
231.688	9360.61
231.761	9352.67
231.833	9336.79
231.905	9251.54
231.978	9251.78
232.05	9241
232.122	9240.28
232.195	9213.31
232.267	9256.7
232.339	9228.72
232.412	9303.14
232.484	9273.56
232.556	9248.25
232.629	9313.14
232.701	9326.14
232.773	9347.75
232.846	9342.31
232.918	9352.29
232.99	9368.9
233.062	9413.49
233.135	9422.98
233.207	9382.67
233.279	9427.87
233.351	9462.92
233.424	9466.82
233.496	9441.49
233.568	9522.79
233.64	9490.14
233.713	9507.28
233.785	9498.66
233.857	9513.54
233.929	9462.07
234.001	9530.53
234.074	9596.87
234.146	9528.47
234.218	9530.73
234.29	9523.46
234.362	9508.35
234.434	9462.25
234.507	9425.9
234.579	9373.6
234.651	9352.94
234.723	9391.95
234.795	9405.24
234.867	9392.96
234.939	9454.46
235.012	9470.59
235.084	9474.44
235.156	9507.04
235.228	9488.21
235.3	9471.69
235.372	9485.76
235.444	9538.24
235.516	9461.3
235.588	9459.57
235.66	9471.37
235.732	9448.97
235.804	9472.57
235.876	9520.66
235.948	9583.33
236.02	9599.32
236.092	9610.24
236.164	9629.07
236.236	9622.28
236.308	9627.39
236.38	9661.77
236.452	9639.66
236.524	9658.64
236.596	9717.19
236.668	9752.4
236.74	9780.23
236.812	9808.7
236.884	9840.11
236.956	9854.85
237.028	9842.52
237.1	9833.04
237.172	9908.86
237.244	9981.89
237.316	10043.12
237.388	10025.59
237.46	10002.71
237.532	10063.02
237.604	10057.58
237.675	10129.99
237.747	10179.71
237.819	10166.27
237.891	10176.68
237.963	10166.32
238.035	10168.01
238.107	10056.56
238.178	10118.25
238.25	10120.85
238.322	10212.6
238.394	10164.67
238.466	10165.1
238.538	10211.14
238.609	10249.58
238.681	10190.08
238.753	10168.63
238.825	10184.15
238.897	10219.65
238.968	10304.99
239.04	10284.71
239.112	10397.48
239.184	10354.06
239.255	10343.8
239.327	10374.53
239.399	10395.53
239.471	10444.38
239.542	10477.09
239.614	10550.84
239.686	10459.54
239.758	10515.81
239.829	10482.26
239.901	10550.96
239.973	10570.57
240.044	10601.36
240.116	10615.76
240.188	10633.25
240.259	10646.26
240.331	10633.49
240.403	10668.13
240.474	10614.44
240.546	10602.2
240.618	10538.84
240.689	10537.4
240.761	10559.76
240.833	10622.97
240.904	10617
240.976	10620.08
241.048	10634.15
241.119	10666.73
241.191	10719.05
241.262	10790.67
241.334	10792.6
241.405	10795.88
241.477	10799.06
241.549	10810.72
241.62	10835.25
241.692	10878.13
241.763	10939.14
241.835	10958.28
241.906	10972.83
241.978	10945.12
242.049	11008.39
242.121	11071.41
242.192	11144.13
242.264	11109
242.335	11068.24
242.407	11119.8
242.478	11117.2
242.55	11136.47
242.621	11122.74
242.693	11124.52
242.764	11102.35
242.836	11103.07
242.907	11135.41
242.979	11169.67
243.05	11190.4
243.122	11216.81
243.193	11223.55
243.264	11149.58
243.336	11151.36
243.407	11191.65
243.479	11270.83
243.55	11294.49
243.622	11314.88
243.693	11312.66
243.764	11387.22
243.836	11367.08
243.907	11346.69
243.978	11359.03
244.05	11388.28
244.121	11340.09
244.192	11388.72
244.264	11341.34
244.335	11361.25
244.407	11310.74
244.478	11322.79
244.549	11310.07
244.62	11264.09
244.692	11259.23
244.763	11308.14
244.834	11300.09
244.906	11270.88
244.977	11297.78
245.048	11346.85
245.119	11319.28
245.191	11294.85
245.262	11228.58
245.333	11302.02
245.405	11330.46
245.476	11357.93
245.547	11376.39
245.618	11431.71
245.689	11442.41
245.761	11479.61
245.832	11475.47
245.903	11520.77
245.974	11546.36
246.045	11567.23
246.117	11651.77
246.188	11632.25
246.259	11610.85
246.33	11629.51
246.401	11644.78
246.473	11599.86
246.544	11590.56
246.615	11657.07
246.686	11665.65
246.757	11741.17
246.828	11715.58
246.899	11783.16
246.97	11749.23
247.042	11735.4
247.113	11776.52
247.184	11866.42
247.255	11864.44
247.326	11895.72
247.397	11904.01
247.468	11910.76
247.539	11927.39
247.61	11884.16
247.681	11933.02
247.752	11985.61
247.823	11960.93
247.894	11977.27
247.965	11959.63
248.037	11942.62
248.108	11878.8
248.179	11884.49
248.25	11876.44
248.321	11906.75
248.392	11859.61
248.463	11949.54
248.534	11951.23
248.605	11976.68
248.675	11941.44
248.746	11957.06
248.817	11968.19
248.888	11993.64
248.959	11946.02
249.03	11973.02
249.101	11983.62
249.172	11972.39
249.243	11903.67
249.314	11974.95
249.385	11981.65
249.456	12009.32
249.527	12002.66
249.598	12038.81
249.669	12038.62
249.739	12051.88
249.81	12071.64
249.881	12024.89
249.952	12015.97
250.023	12009.65
250.094	11955.18
250.165	11924.72
250.235	11928.14
250.306	11935.23
250.377	11894.93
250.448	11920.57
250.519	11850.73
250.59	11905.68
250.66	11898.02
250.731	11968.62
250.802	11961.83
250.873	11978.65
250.944	12003.52
251.014	11999.81
251.085	12086.63
251.156	12104.65
251.227	12153.53
251.297	12202.37
251.368	12258.66
251.439	12288.74
251.51	12346.88
251.58	12334.1
251.651	12332.32
251.722	12386.7
251.792	12337.72
251.863	12345.24
251.934	12407.23
252.005	12523.73
252.075	12536.85
252.146	12591.07
252.217	12648.05
252.287	12689.6
252.358	12690.91
252.429	12762.78
252.499	12760.61
252.57	12761.29
252.641	12810.98
252.711	12821.88
252.782	12774.45
252.852	12848.83
252.923	12859.29
252.994	12869.07
253.064	12924.41
253.135	12904.02
253.205	12876.11
253.276	12956.42
253.347	13022.12
253.417	13001.05
253.488	12980.66
253.558	12959.54
253.629	12956.31
253.699	12965.47
253.77	13000.76
253.841	13005.15
253.911	13013.78
253.982	13028.86
254.052	13062.22
254.123	13073.26
254.193	13076.49
254.264	13210.55
254.334	13175.84
254.405	13146.49
254.475	13118.67
254.546	13118.57
254.616	13177.48
254.687	13212.62
254.757	13231.81
254.827	13230.17
254.898	13256.15
254.968	13261.5
255.039	13247.77
255.109	13290.23
255.18	13253.65
255.25	13178.3
255.321	13207.56
255.391	13167.98
255.461	13243.18
255.532	13158.39
255.602	13154.39
255.673	13098.23
255.743	13067.67
255.813	12995.51
255.884	13039.66
255.954	13071.72
256.024	13147.11
256.095	13159.99
256.165	13123.74
256.235	13139.93
256.306	13127.06
256.376	13174.3
256.446	13213.4
256.517	13250.9
256.587	13292.65
256.657	13316.99
256.728	13338.69
256.798	13347.03
256.868	13337.1
256.938	13314.78
257.009	13365.3
257.079	13397.21
257.149	13498.73
257.219	13433.99
257.29	13477.85
257.36	13422.71
257.43	13457.46
257.5	13381.1
257.571	13363.85
257.641	13397.88
257.711	13367.51
257.781	13395.37
257.852	13412.2
257.922	13347.12
257.992	13344.42
258.062	13328.51
258.132	13375.03
258.202	13373.25
258.273	13385.3
258.343	13459.25
258.413	13442.13
258.483	13443.53
258.553	13421.26
258.623	13389.78
258.693	13416.68
258.764	13486
258.834	13551.75
258.904	13573.98
258.974	13570.22
259.044	13584.2
259.114	13610.28
259.184	13639.73
259.254	13652.22
259.324	13591.04
259.394	13637.61
259.464	13713.82
259.535	13731.66
259.605	13722.4
259.675	13723.22
259.745	13762.08
259.815	13739.66
259.885	13739.23
259.955	13853.08
260.025	13839.92
260.095	13851.4
260.165	13895.36
260.235	13950.6
260.305	13931.46
260.375	13891.65
260.445	13977.26
260.515	14037.76
260.585	14087.36
260.655	14095.51
260.725	14140.29
260.795	14184.79
260.865	14261.96
260.934	14230.15
261.004	14261.91
261.074	14266.88
261.144	14328.92
261.214	14362.76
261.284	14368.06
261.354	14415.84
261.424	14369.66
261.494	14442.16
261.564	14447.66
261.634	14459.61
261.703	14392.56
261.773	14422.79
261.843	14459.42
261.913	14452.24
261.983	14401.33
262.053	14418.4
262.123	14409.09
262.192	14370.53
262.262	14404.85
262.332	14357.8
262.402	14396.08
262.472	14398.68
262.541	14338.95
262.611	14384.99
262.681	14365.18
262.751	14400.51
262.821	14404.32
262.89	14378.34
262.96	14405.86
263.03	14486.7
263.1	14513.98
263.169	14540.59
263.239	14584.41
263.309	14650.55
263.379	14682.51
263.448	14698.03
263.518	14721.45
263.588	14743.05
263.657	14811.26
263.727	14851.94
263.797	14856.38
263.867	14859.8
263.936	14828.18
264.006	14894.56
264.076	14887.42
264.145	14879.37
264.215	14865.73
264.285	14903.72
264.354	14854.79
264.424	14831.94
264.494	14787.35
264.563	14775.88
264.633	14847.51
264.702	14861.49
264.772	14804.66
264.842	14803.5
264.911	14832.47
264.981	14797.09
265.05	14811.6
265.12	14811.41
265.19	14829.15
265.259	14881.64
265.329	14910.8
265.398	14933.22
265.468	15029.48
265.537	15029.38
265.607	15062.98
265.676	15115.28
265.746	15137.07
265.815	15201.32
265.885	15214.48
265.955	15193.03
266.024	15201.23
266.094	15137.94
266.163	15200.16
266.232	15270.63
266.302	15277
266.371	15309.15
266.441	15337.2
266.51	15389.16
266.58	15386.56
266.649	15363.43
266.719	15413.02
266.788	15443.53
266.858	15519.06
266.927	15449.85
266.996	15465.27
267.066	15499.83
267.135	15464.45
267.205	15508.94
267.274	15529.86
267.343	15585.97
267.413	15606.6
267.482	15664.73
267.552	15731.73
267.621	15683.33
267.69	15638.85
267.76	15670.47
267.829	15699
267.898	15708.4
267.968	15682.28
268.037	15732.36
268.106	15786.68
268.176	15747.44
268.245	15761.47
268.314	15740.45
268.384	15799.88
268.453	15831.84
268.522	15852.81
268.592	15922.89
268.661	15907.03
268.73	15946.03
268.799	15938.03
268.869	16026.76
268.938	15978.13
269.007	15965.65
269.076	15986.03
269.146	16039.83
269.215	16067.49
269.284	16137.23
269.353	16137.52
269.422	16148.75
269.492	16145.62
269.561	16066.38
269.63	16108.65
269.699	16098.29
269.768	16125.33
269.838	16146.05
269.907	16179.45
269.976	16146.15
270.045	16083.2
270.114	16125.03
270.183	16125.46
270.253	16155.44
270.322	16102.23
270.391	16134.05
270.46	16203.35
270.529	16256.32
270.598	16305.96
270.667	16311.31
270.736	16283.12
270.806	16319.75
270.875	16387.61
270.944	16400.77
271.013	16533.31
271.082	16563.19
271.151	16605.02
271.22	16569.17
271.289	16575.53
271.358	16582.66
271.427	16624.21
271.496	16664.65
271.565	16663.49
271.634	16690
271.703	16814.58
271.772	16880.85
271.841	16895.5
271.91	16866
271.979	16882.24
272.048	16847.16
272.117	16908.99
272.186	16906.97
272.255	16957.19
272.324	16994.1
272.393	17021.57
272.462	17000.95
272.531	17016.03
272.6	17023.45
272.669	17096.76
272.738	17112.71
272.807	17154.02
272.876	17142.11
272.945	17289.63
273.013	17350.21
273.082	17419.12
273.151	17324.81
273.22	17362.69
273.289	17385.97
273.358	17470.84
273.427	17473.73
273.496	17536.72
273.564	17562.36
273.633	17625.64
273.702	17615.56
273.771	17627.95
273.84	17661.39
273.909	17708
273.977	17748.52
274.046	17759.99
274.115	17810.21
274.184	17811.32
274.253	17824.47
274.322	17910.98
274.39	17835.9
274.459	17830.6
274.528	17772.05
274.597	17791.52
274.665	17814.55
274.734	17885.97
274.803	17891.37
274.872	17922.36
274.94	17911.76
275.009	18134.66
275.078	18134.9
275.147	18171
275.215	18195
275.284	18264.83
275.353	18277.02
275.421	18244.01
275.49	18348.2
275.559	18366.8
275.627	18394.85
275.696	18418.03
275.765	18451.08
275.833	18470.75
275.902	18509.78
275.971	18592.67
276.039	18687.12
276.108	18745
276.177	18783.16
276.245	18791.93
276.314	18820.9
276.383	18885.38
276.451	18722.61
276.52	18772.49
276.588	18859.18
276.657	18922.16
276.725	18928.38
276.794	18970.79
276.863	19056.76
276.931	19017.39
277	19082.88
277.068	19160.61
277.137	19260.07
277.205	19296.17
277.274	19406.67
277.342	19486.71
277.411	19463.15
277.48	19466.62
277.548	19476.69
277.617	19513.75
277.685	19539.58
277.754	19605.6
277.822	19624.25
277.89	19712.63
277.959	19734.22
278.027	19708.44
278.096	19717.31
278.164	19854.33
278.233	19878.23
278.301	19886.71
278.37	19955.91
278.438	19956.2
278.507	20001.6
278.575	19958.13
278.643	19978.51
278.712	19954.32
278.78	19947.57
278.849	20036.97
278.917	20114.75
278.985	20145.93
279.054	20204.29
279.122	20290.94
279.191	20319.47
279.259	20347.95
279.327	20311.71
279.396	20404.19
279.464	20438.46
279.532	20494.46
279.601	20512.63
279.669	20536.82
279.737	20618.9
279.806	20666.23
279.874	20737.84
279.942	20777.36
280.011	20814.57
280.079	20892.88
280.147	20988.5
280.215	21049.23
280.284	21081.23
280.352	21074.29
280.42	21145.81
280.488	21154.39
280.557	21168.42
280.625	21224.42
280.693	21282.02
280.761	21340.24
280.83	21331.08
280.898	21413.88
280.966	21402.61
281.034	21339.12
281.102	21341.29
281.171	21361.25
281.239	21437.85
281.307	21445.41
281.375	21451.68
281.443	21579.8
281.512	21610.65
281.58	21675.78
281.648	21670
281.716	21710.48
281.784	21759.99
281.852	21769.68
281.92	21808.96
281.989	21897.61
282.057	21888.79
282.125	22063.45
282.193	22098.78
282.261	22143.22
282.329	22175.62
282.397	22245.37
282.465	22303.31
282.533	22397.01
282.601	22414.55
282.67	22380.42
282.738	22408.67
282.806	22495.2
282.874	22502.38
282.942	22555.08
283.01	22575.96
283.078	22640.08
283.146	22675.36
283.214	22744.98
283.282	22811.33
283.35	22903.72
283.418	22918.33
283.486	22975.84
283.554	22887.43
283.622	22930.82
283.69	22973.15
283.758	23003.77
283.826	23056.57
283.894	23138.59
283.962	23239.14
284.03	23328.15
284.098	23364.7
284.165	23402.3
284.233	23443.77
284.301	23466.78
284.369	23478.74
284.437	23505.5
284.505	23528.65
284.573	23621.43
284.641	23627.17
284.709	23692.29
284.777	23667.11
284.845	23737.29
284.912	23801.24
284.98	23870.4
285.048	23902.66
285.116	23976.56
285.184	24059.47
285.252	24103.99
285.319	24094.83
285.387	24123.73
285.455	24117.02
285.523	24202.25
285.591	24235.48
285.659	24287.33
285.726	24362.2
285.794	24367.46
285.862	24403.78
285.93	24464.7
285.997	24489.21
286.065	24530.69
286.133	24537.06
286.201	24589.4
286.269	24595.62
286.336	24612.6
286.404	24626.5
286.472	24705.53
286.539	24679.77
286.607	24680.01
286.675	24724.93
286.743	24799.81
286.81	24823.6
286.878	24930.43
286.946	24943.51
287.013	24984.56
287.081	25023.69
287.149	25015.88
287.216	25127
287.284	25157.78
287.352	25198.22
287.419	25241.17
287.487	25330.12
287.555	25394.41
287.622	25428.91
287.69	25486.35
287.758	25571.58
287.825	25608.64
287.893	25616.89
287.96	25679.42
288.028	25751.63
288.096	25803.76
288.163	25854.06
288.231	25853.73
288.298	25881.25
288.366	25973.16
288.433	26016.4
288.501	26030.59
288.569	26098.99
288.636	26120.91
288.704	26203.95
288.771	26271.3
288.839	26288.19
288.906	26309.68
288.974	26378.17
289.041	26411.04
289.109	26419.44
289.176	26494.65
289.244	26540.32
289.311	26614.3
289.379	26691.79
289.446	26750.72
289.514	26788.1
289.581	26837.89
289.649	26902.3
289.716	26959.79
289.783	26972.06
289.851	27077.67
289.918	27124.6
289.986	27194.31
290.053	27258.75
290.121	27297.2
290.188	27357.35
290.255	27501.05
290.323	27539.79
290.39	27575.74
290.458	27661.33
290.525	27757.42
290.592	27784.96
290.66	27855.78
290.727	27889.31
290.794	27986.84
290.862	28034.4
290.929	28100.12
290.996	28139.21
291.064	28224.46
291.131	28301.9
291.198	28398.13
291.266	28443.71
291.333	28509.9
291.4	28577.97
291.468	28686.62
291.535	28726.93
291.602	28786.21
291.669	28804.73
291.737	28851.46
291.804	28893.48
291.871	28978.67
291.938	29048.78
292.006	29186.91
292.073	29271.37
292.14	29358.99
292.207	29373.64
292.275	29413.35
292.342	29484.1
292.409	29618.67
292.476	29737.41
292.543	29751.77
292.611	29793.52
292.678	29893.95
292.745	30016.62
292.812	30088.85
292.879	30107.58
292.946	30160.05
293.014	30232
293.081	30301.73
293.148	30403.55
293.215	30493.66
293.282	30532.7
293.349	30611.88
293.416	30580.95
293.484	30672.43
293.551	30753.51
293.618	30854.65
293.685	30993.39
293.752	31025.33
293.819	31058.35
293.886	31061.01
293.953	31128.91
294.02	31224.62
294.087	31274.59
294.154	31288.53
294.221	31394.66
294.288	31442.78
294.356	31556.64
294.423	31632.04
294.49	31652.08
294.557	31739.01
294.624	31759.44
294.691	31872.66
294.758	31911.17
294.825	31995.62
294.892	32013.5
294.959	32056.85
295.026	32130.29
295.093	32139.69
295.16	32195.08
295.226	32239.6
295.293	32353.99
295.36	32419.52
295.427	32494.25
295.494	32590.39
295.561	32676.03
295.628	32789.99
295.695	32883.89
295.762	32948.53
295.829	33022.11
295.896	33124.24
295.963	33200.97
296.03	33288.42
296.096	33351.88
296.163	33444.16
296.23	33544.6
296.297	33641.38
296.364	33681.95
296.431	33751.66
296.498	33807.69
296.564	33934.77
296.631	34008.5
296.698	34020.28
296.765	34131.98
296.832	34147.93
296.899	34152.78
296.965	34263.63
297.032	34236.51
297.099	34358.6
297.166	34430.71
297.233	34473.97
297.299	34501.65
297.366	34555.88
297.433	34622.75
297.5	34697.06
297.566	34761.09
297.633	34799.36
297.7	34856.84
297.767	34925.64
297.833	34979.64
297.9	35035.5
297.967	35032.4
298.033	35121.23
298.1	35276.35
298.167	35307.06
298.234	35374.67
298.3	35466.4
298.367	35500.41
298.434	35576.11
298.5	35581.16
298.567	35625.65
298.634	35671.26
298.7	35790.56
298.767	35843.69
298.834	35927.25
298.9	35958.55
298.967	35978.6
299.033	36066.15
299.1	36168.8
299.167	36254.64
299.233	36302.3
299.3	36385.81
299.366	36492.42
299.433	36580.97
299.5	36542.42
299.566	36603.67
299.633	36717.3
299.699	36795.5
299.766	36837.97
299.832	36898.61
299.899	36982.94
299.965	37063.57
300.032	37102.01
300.099	37178.73
300.165	37248.3
300.232	37285.97
300.298	37341.36
300.365	37445.02
300.431	37491.63
300.498	37513.68
300.564	37583.93
300.631	37668.13
300.697	37785.5
300.763	37830.17
300.83	37867.71
300.896	37960.55
300.963	38040.77
301.029	38094.24
301.096	38163.89
301.162	38245.61
301.229	38278.44
301.295	38286.65
301.361	38341.78
301.428	38420.82
301.494	38405.82
301.561	38463.96
301.627	38528.74
301.693	38579.05
301.76	38630.45
301.826	38671.73
301.892	38765.53
301.959	38842.43
302.025	38893.1
302.092	38904.46
302.158	38987.86
302.224	39039.45
302.291	39045.96
302.357	39078.85
302.423	39105.76
302.49	39121.94
302.556	39194.57
302.622	39247.57
302.688	39337.78
302.755	39424.22
302.821	39478.19
302.887	39558.43
302.954	39607.41
303.02	39678.78
303.086	39748.64
303.152	39778.52
303.219	39807.38
303.285	39856.17
303.351	39910.21
303.417	39950.59
303.483	39967.01
303.55	39987.08
303.616	40041.31
303.682	40107.72
303.748	40133.71
303.815	40237.33
303.881	40315.95
303.947	40331.79
304.013	40390.64
304.079	40409.64
304.145	40392.83
304.212	40442.29
304.278	40461.1
304.344	40481.51
304.41	40477.72
304.476	40508.82
304.542	40546.09
304.608	40603.14
304.674	40587.88
304.741	40617.48
304.807	40678.63
304.873	40748.56
304.939	40851.06
305.005	40836.38
305.071	40869.23
305.137	40925.46
305.203	40867.23
305.269	40902.23
305.335	40982.09
305.401	41002.51
305.467	41037.89
305.533	41116.39
305.599	41185.07
305.666	41251.31
305.732	41307.31
305.798	41401.41
305.864	41527.53
305.93	41592.28
305.996	41643.32
306.062	41696.98
306.128	41729.41
306.194	41720.61
306.259	41755.9
306.325	41738.11
306.391	41814.04
306.457	41900.13
306.523	41955.01
306.589	42095.71
306.655	42117.64
306.721	42093.04
306.787	42111.27
306.853	42205.83
306.919	42192.46
306.985	42205.98
307.051	42236.56
307.117	42248.47
307.183	42276.23
307.248	42223.66
307.314	42268.35
307.38	42313.33
307.446	42379.75
307.512	42394.04
307.578	42455.25
307.644	42474.12
307.709	42536.16
307.775	42571.95
307.841	42585.47
307.907	42639.39
307.973	42609.39
308.039	42644.93
308.104	42706.1
308.17	42744.36
308.236	42730.84
308.302	42796
308.368	42803.19
308.433	42838.84
308.499	42878.95
308.565	42872.09
308.631	42909.39
308.696	42877.59
308.762	42862.03
308.828	42897.44
308.894	42878.67
308.959	42853.82
309.025	42872.88
309.091	42898.17
309.156	42898.47
309.222	42939.27
309.288	42922.64
309.354	42889.23
309.419	42914.91
309.485	42915.84
309.551	42977.94
309.616	42983.44
309.682	42994.09
309.748	43026.38
309.813	43051.33
309.879	43055.75
309.945	43073.31
310.01	43091.25
310.076	43147.52
310.141	43180.98
310.207	43154.23
310.273	43189.58
310.338	43232.61
310.404	43232.76
310.469	43231.54
310.535	43230.08
310.601	43195.36
310.666	43260.24
310.732	43336.84
310.797	43343.6
310.863	43342.04
310.928	43345.06
310.994	43379.01
311.059	43402.4
311.125	43422.64
311.191	43495.47
311.256	43496.54
311.322	43540.17
311.387	43511.28
311.453	44412.03
311.518	44431.87
311.584	44474.68
311.649	44544.19
311.715	44550.07
311.78	44588.64
311.846	44601.48
311.911	44674.65
311.976	44718.57
312.042	44697.4
312.107	44689.67
312.173	44692.3
312.238	44719.58
312.304	44746.24
312.369	44763.75
312.434	44776.06
312.5	44791
312.565	44725.32
312.631	44783.59
312.696	44794.83
312.761	44858.59
312.827	43994.23
312.892	44101.83
312.958	44115.94
313.023	44146.5
313.088	44199.72
313.154	44188.24
313.219	44185.76
313.284	44182.16
313.35	44196.17
313.415	44200.55
313.48	44217.04
313.546	44260.1
313.611	44324.9
313.676	44342.08
313.741	44352.39
313.807	44397.5
313.872	44443.19
313.937	44495.05
314.003	44551.3
314.068	44592.57
314.133	44640.69
314.198	44637.82
314.264	44596.79
314.329	44591.43
314.394	44585.98
314.459	44591.58
314.525	44679.11
314.59	44712.63
314.655	44708.25
314.72	44763.19
314.785	44806.98
314.851	44827.7
314.916	44806.25
314.981	44784.3
315.046	44772.86
315.111	44764.11
315.176	44759.43
315.242	44783.09
315.307	44803.58
315.372	44769.65
315.437	44758.7
315.502	44762.45
315.567	44829.42
315.632	44821.19
315.698	44874.04
315.763	44901.01
315.828	44902.71
315.893	44912.4
315.958	44913.08
316.023	44923.3
316.088	44887.14
316.153	44828.12
316.218	44819.12
316.283	44776.51
316.348	44736.81
316.413	44747.61
316.479	44707.97
316.544	44604.21
316.609	44515.22
316.674	44396.52
316.739	44279.4
316.804	44177.92
316.869	44028.2
316.934	43884.04
316.999	43747.41
317.064	43544.24
317.129	43372.24
317.194	43242.58
317.259	43057.84
317.324	42872.87
317.389	42675.49
317.454	42511.8
317.518	42368.23
317.583	42247.04
317.648	42140.52
317.713	41982.12
317.778	41745.43
317.843	41615.72
317.908	41458.19
317.973	41283.62
318.038	41147.82
318.103	40984.24
318.168	40835.7
318.233	40697.92
318.297	40485.9
318.362	40333.16
318.427	40163.31
318.492	40025.98
318.557	39804.54
318.622	39655.22
318.687	39518.47
318.751	39336.72
318.816	39167.27
318.881	38996.63
318.946	38751.71
319.011	38525.51
319.075	38325.28
319.14	38129.64
319.205	37910.22
319.27	37714.66
319.335	37492.63
319.399	37271.33
319.464	37098.66
319.529	36832.46
319.594	36626.09
319.658	36459.52
319.723	36219.77
319.788	36041.3
319.853	35778.23
319.917	35600.67
319.982	35338.57
320.047	35123.41
320.112	34949.47
320.176	34692.36
320.241	34494.75
320.306	34299.52
320.37	34078.38
320.435	33887.68
320.5	33713.06
320.564	33490.65
320.629	33277.22
320.694	33077.66
320.758	32861.51
320.823	32623.08
320.888	32444.93
320.952	32187.66
321.017	31946.68
321.082	31729.6
321.146	31525.43
321.211	31323.77
321.275	31093.69
321.34	30854.98
321.405	30614.25
321.469	30373.39
321.534	30150.62
321.598	29873.17
321.663	29669.7
321.727	29466.47
321.792	29202.79
321.857	28949.13
321.921	28724.98
321.986	28481.37
322.05	28185.31
322.115	27964.48
322.179	27715.42
322.244	27429.39
322.308	27220.26
322.373	26961.43
322.437	26727.97
322.502	26528.96
322.566	26281.38
322.631	26061.4
322.695	25831.7
322.76	25585.84
322.824	25357.73
322.889	25109.76
322.953	24865.55
323.018	24542.64
323.082	24224.55
323.146	23950.15
323.211	23674.11
323.275	23404.87
323.34	23141.92
323.404	22927.71
323.468	22662.1
323.533	22403.74
323.597	22142.23
323.662	21855.75
323.726	21630.63
323.79	21361.4
323.855	21030.82
323.919	20753.22
323.983	20478.66
324.048	20094.49
324.112	20250.7
324.177	19440.59
324.241	18377.13
324.305	17332.88
324.37	16314.8
324.434	15326.76
324.498	15050.04
324.562	14741.42
324.627	14394.4
324.691	14049.01
324.755	13663.03
324.82	13218.31
324.884	12765.57
324.948	12301.56
325.012	11730.02
325.077	11024.03
