Data from 20250701_urea_2M_exp3_MAYP1162681_19-59-51-705.txt Node
Date: Tue Jul 01 19:59:51 BST 2025
User: adleo
Spectrometer: MAYP116268
Trigger mode: 0
Integration Time (sec): 4.000000E0
Scans to average: 1
Electric dark correction enabled: true
Nonlinearity correction enabled: true
Boxcar width: 10
XAxis mode: Wavelengths
Number of Pixels in Spectrum: 2068
>>>>>Begin Spectral Data<<<<<
179.565	3996.1
179.642	4202.13
179.718	4365.75
179.795	4502.69
179.871	4623.99
179.948	4692.79
180.024	4769.02
180.101	4857.27
180.177	4913.15
180.254	4995.86
180.33	5078.8
180.407	5373.23
180.483	5684.5
180.56	5999.33
180.636	6287.59
180.712	6245.95
180.789	6283.05
180.865	6329.01
180.942	6358.48
181.018	6396.59
181.095	6446.94
181.171	6461.67
181.248	6464.79
181.324	6525.52
181.4	6555.68
181.477	6595.11
181.553	6645.55
181.63	6723.65
181.706	6778.22
181.782	6806.3
181.859	6804.91
181.935	6824.94
182.011	6806.44
182.088	6864.82
182.164	6937.16
182.24	6988.63
182.317	7018.65
182.393	7011.64
182.469	7062.47
182.546	7109.07
182.622	7128.96
182.698	7106.08
182.775	7151.82
182.851	7203.38
182.927	7169.98
183.003	7151.92
183.08	7130.45
183.156	7162.5
183.232	7151.34
183.308	7108.2
183.385	7137.07
183.461	7199.35
183.537	7198.82
183.613	7248.8
183.69	7216.21
183.766	7174.28
183.842	7203.51
183.918	7221.38
183.995	7268.81
184.071	7273.52
184.147	7259.54
184.223	7215.59
184.299	7259.05
184.375	7221.86
184.452	7245.57
184.528	7376.37
184.604	7416.44
184.68	7455.07
184.756	7480.99
184.832	7494.12
184.908	7511.6
184.985	7518.81
185.061	7468.15
185.137	7505.94
185.213	7461.92
185.289	7469.55
185.365	7439.38
185.441	7426.5
185.517	7480.32
185.593	7466.86
185.669	7459.36
185.745	7492.19
185.822	7554.21
185.898	7525.6
185.974	7557.07
186.05	7527.93
186.126	7453.71
186.202	7430.3
186.278	7417.76
186.354	7380.21
186.43	7402.91
186.506	7400.51
186.582	7388.69
186.658	7406.94
186.734	7335.2
186.81	7345.43
186.886	7354.61
186.962	7405.11
187.038	7394.92
187.114	7361.34
187.19	7389.38
187.266	7357.61
187.341	7362.18
187.417	7335.12
187.493	7339.31
187.569	7350.36
187.645	7330.9
187.721	7288.83
187.797	7320.98
187.873	7342.8
187.949	7327.91
188.025	7302.56
188.101	7311.4
188.176	7335.67
188.252	7322.65
188.328	7352.05
188.404	7350.65
188.48	7330.86
188.556	7307.35
188.632	7303.26
188.707	7306.44
188.783	7296.34
188.859	7281.12
188.935	7242.8
189.011	7267.41
189.086	7239.15
189.162	7212.76
189.238	7200.03
189.314	7191.14
189.39	7164.52
189.465	7137.36
189.541	7190.52
189.617	7137.86
189.693	7118.89
189.768	7126.58
189.844	7214.49
189.92	7179.96
189.996	7209.9
190.071	7250.17
190.147	7241.48
190.223	7277.05
190.298	7247.15
190.374	7202.74
190.45	7238.53
190.526	7265.16
190.601	7247.28
190.677	7259.72
190.753	7356.99
190.828	7372.26
190.904	7429.19
190.98	7483.42
191.055	7517.46
191.131	7491.15
191.207	7568.92
191.282	7604.53
191.358	7573.95
191.433	7517.48
191.509	7565.9
191.585	7557.87
191.66	7558.78
191.736	7588.25
191.811	7553.53
191.887	7614.76
191.963	7697.02
192.038	7716.73
192.114	7719.38
192.189	7738.27
192.265	7725.25
192.34	7642.45
192.416	7635.48
192.491	7618.21
192.567	7625.62
192.642	7633.41
192.718	7629.47
192.793	7584.56
192.869	7573.89
192.944	7581.49
193.02	7610.15
193.095	7626.78
193.171	7645.78
193.246	7649.29
193.322	7639.05
193.397	7643.95
193.473	7595.17
193.548	7529.24
193.624	7560.51
193.699	7553.63
193.775	7609.19
193.85	7612.6
193.925	7651.55
194.001	7655.3
194.076	7626.89
194.152	7589.08
194.227	7569.17
194.302	7537.08
194.378	7549.34
194.453	7534.92
194.529	7577.91
194.604	7522.04
194.679	7497.96
194.755	7434.09
194.83	7475.03
194.905	7471.43
194.981	7504.65
195.056	7480.81
195.131	7498.89
195.207	7486.91
195.282	7454.56
195.357	7382.32
195.433	7440.73
195.508	7395.53
195.583	7423.17
195.659	7475.2
195.734	7506.99
195.809	7500.16
195.884	7531.11
195.96	7538.61
196.035	7591.44
196.11	7572.01
196.185	7621.19
196.261	7633.78
196.336	7744.94
196.411	7692.12
196.486	7714.77
196.561	7689.09
196.637	7714.13
196.712	7773.3
196.787	7776.04
196.862	7831.18
196.937	7865.94
197.013	7884.8
197.088	7918.79
197.163	7994.15
197.238	8055.04
197.313	8051.39
197.388	8098.23
197.464	8206.31
197.539	8236.9
197.614	8216.46
197.689	8269.96
197.764	8322.37
197.839	8393.18
197.914	8367.63
197.989	8447.88
198.065	8486.81
198.14	8669.09
198.215	8770.58
198.29	8816.75
198.365	8869.12
198.44	8906.41
198.515	9007.11
198.59	9062.91
198.665	9154.8
198.74	9181.34
198.815	9181.05
198.89	9263.32
198.965	9369.26
199.04	9356.26
199.115	9416.72
199.19	9566.97
199.265	9571.4
199.34	9613.15
199.415	9737.54
199.49	9814.42
199.565	9841.25
199.64	9933.9
199.715	9916.85
199.79	9935.68
199.865	9948.83
199.94	9943.58
200.015	10056.73
200.09	10082.55
200.165	10104.04
200.24	10128.46
200.315	10270.53
200.39	10324.87
200.464	10340.38
200.539	10350.69
200.614	10407.87
200.689	10492.57
200.764	10514.78
200.839	10579.32
200.914	10594.44
200.989	10553.24
201.063	10597.9
201.138	10548.74
201.213	10545.75
201.288	10478.16
201.363	10491.65
201.438	10498.2
201.512	10556.87
201.587	10493.12
201.662	10503.14
201.737	10542.17
201.812	10575.18
201.886	10461.34
201.961	10492.09
202.036	10453.02
202.111	10441.03
202.186	10335.52
202.26	10266.19
202.335	10187.75
202.41	10163.14
202.485	10099.85
202.559	10025.82
202.634	9935.99
202.709	9968.49
202.784	9894.32
202.858	9898.12
202.933	9838.59
203.008	9808.82
203.082	9739.28
203.157	9733.74
203.232	9579.98
203.306	9502.81
203.381	9378.65
203.456	9291.87
203.53	9211.5
203.605	9141.72
203.68	9057.82
203.754	9030.74
203.829	8985.38
203.904	8916.84
203.978	8873.74
204.053	8892.71
204.127	8847.62
204.202	8846.85
204.277	8774.51
204.351	8754.29
204.426	8724.73
204.5	8689.07
204.575	8571.58
204.65	8608.51
204.724	8576.73
204.799	8603.32
204.873	8591.82
204.948	8589.8
205.022	8544.72
205.097	8516.99
205.171	8565.39
205.246	8592.35
205.32	8595.29
205.395	8589.99
205.469	8561.33
205.544	8584.77
205.618	8517.16
205.693	8562.4
205.767	8510.52
205.842	8590.33
205.916	8569.11
205.991	8531.76
206.065	8560.25
206.14	8612.23
206.214	8589.45
206.289	8566.05
206.363	8606.09
206.438	8614.13
206.512	8642.48
206.586	8712.44
206.661	8742.49
206.735	8661.97
206.81	8662.84
206.884	8714.56
206.958	8673.28
207.033	8730.86
207.107	8756.1
207.181	8870.58
207.256	8846.66
207.33	8918.32
207.405	8965.87
207.479	9034.17
207.553	9061.93
207.628	8997.18
207.702	9042.41
207.776	9022.1
207.851	9036.44
207.925	9091.82
207.999	9077.52
208.073	9072.52
208.148	9079.26
208.222	9034.48
208.296	9152.07
208.371	9217.68
208.445	9255.15
208.519	9358.55
208.593	9394.95
208.668	9377.8
208.742	9383.05
208.816	9391.76
208.89	9432.75
208.965	9423.31
209.039	9451.92
209.113	9514.57
209.187	9589.1
209.261	9569.07
209.336	9638.37
209.41	9712.59
209.484	9712.49
209.558	9792.3
209.632	9836.45
209.707	9880.19
209.781	9956.71
209.855	10013.75
209.929	10069.08
210.003	10091.53
210.077	10080.35
210.151	10254.9
210.226	10376.13
210.3	10482.69
210.374	10567.22
210.448	10584.85
210.522	10620.8
210.596	10657.56
210.67	10688.01
210.744	10856.75
210.818	10983.53
210.892	11057.59
210.966	11033.12
211.041	11093.98
211.115	11081.36
211.189	11165.1
211.263	11220.32
211.337	11246.68
211.411	11295.89
211.485	11273.86
211.559	11310.48
211.633	11318.14
211.707	11202.84
211.781	11227.33
211.855	11090.37
211.929	11058.24
212.003	10990.13
212.077	11029.36
212.151	11067.92
212.225	11096.64
212.299	11052.15
212.373	11001.79
212.447	10980.06
212.52	11081.3
212.594	11087.86
212.668	11127.8
212.742	11074.89
212.816	11054.99
212.89	11033.83
212.964	11015.18
213.038	11018.22
213.112	11059.18
213.186	11111.99
213.26	11028.04
213.333	10865.99
213.407	10876.3
213.481	10874.33
213.555	10915.98
213.629	10860.37
213.703	10798.83
213.777	10791.89
213.85	10716.76
213.924	10827.42
213.998	10817.87
214.072	10783.51
214.146	10730.45
214.219	10704.29
214.293	10679.96
214.367	10666.46
214.441	10678.22
214.515	10629.55
214.588	10534.44
214.662	10400.6
214.736	10306.43
214.81	10319.04
214.883	10335.94
214.957	10291.93
215.031	10237.08
215.105	10131.81
215.178	10054.88
215.252	10013.98
215.326	9904.74
215.4	9811.67
215.473	9616.51
215.547	9529.03
215.621	9453.33
215.694	9438.83
215.768	9336.02
215.842	9265.09
215.915	9193.04
215.989	9078.76
216.063	9025.63
216.136	8997.99
216.21	8967.67
216.284	8986.4
216.357	8959.73
216.431	8908.8
216.504	8895.08
216.578	8956.38
216.652	8968.79
216.725	8949.39
216.799	8948.66
216.873	8927.92
216.946	8939.95
217.02	8901.18
217.093	8861.56
217.167	8757.08
217.24	8669.84
217.314	8630.2
217.387	8582.58
217.461	8532.1
217.535	8551.59
217.608	8473.1
217.682	8446.01
217.755	8459.19
217.829	8391.08
217.902	8374.1
217.976	8355.81
218.049	8306.21
218.123	8217.29
218.196	8215.03
218.27	8172.74
218.343	8099.67
218.417	8091.15
218.49	8063.3
218.563	8108.71
218.637	8118.1
218.71	8197.59
218.784	8224.68
218.857	8262.1
218.931	8280.42
219.004	8290.67
219.077	8311.56
219.151	8330.66
219.224	8319.35
219.298	8309.78
219.371	8361.95
219.444	8320.92
219.518	8329.82
219.591	8347.67
219.665	8459.23
219.738	8480.73
219.811	8470.59
219.885	8516.88
219.958	8554.37
220.031	8561.68
220.105	8584.98
220.178	8592.05
220.251	8562.54
220.325	8583.44
220.398	8598.26
220.471	8625.97
220.544	8669.05
220.618	8645.41
220.691	8678.42
220.764	8698.58
220.838	8731.02
220.911	8712.39
220.984	8802.37
221.057	8840.34
221.131	8870.42
221.204	8766.85
221.277	8835.7
221.35	8962.11
221.424	8955.8
221.497	8968.03
221.57	8992.52
221.643	9021.89
221.716	9073.51
221.79	9076.5
221.863	9097.49
221.936	9108.23
222.009	9121.27
222.082	9154.35
222.155	9158.64
222.229	9228.56
222.302	9257.11
222.375	9266.06
222.448	9314.31
222.521	9321.1
222.594	9319.7
222.667	9290.11
222.74	9354.38
222.814	9343.54
222.887	9322.92
222.96	9375.75
223.033	9417.65
223.106	9443.06
223.179	9472.98
223.252	9483.29
223.325	9518.38
223.398	9525.61
223.471	9564.76
223.544	9586.8
223.617	9592.2
223.69	9616.85
223.763	9579.38
223.837	9606.1
223.91	9636.2
223.983	9573.95
224.056	9539
224.129	9570.44
224.202	9627.48
224.275	9612.55
224.348	9584.86
224.42	9553.27
224.493	9492.35
224.566	9468.9
224.639	9489.02
224.712	9456.51
224.785	9442.92
224.858	9435.03
224.931	9417.06
225.004	9369.15
225.077	9364.58
225.15	9272.25
225.223	9272.88
225.296	9357.23
225.369	9296.09
225.442	9261.27
225.514	9290.34
225.587	9311.09
225.66	9310.32
225.733	9311.57
225.806	9319.95
225.879	9312.06
225.952	9276.24
226.025	9329.02
226.097	9383.74
226.17	9379.55
226.243	9312.4
226.316	9302.96
226.389	9310.18
226.461	9330.51
226.534	9344.47
226.607	9336.96
226.68	9423.36
226.753	9418.26
226.825	9325.47
226.898	9391.43
226.971	9400.29
227.044	9417.82
227.117	9425.24
227.189	9449.37
227.262	9489.68
227.335	9509.24
227.407	9503.51
227.48	9543.9
227.553	9557.14
227.626	9532.76
227.698	9536.13
227.771	9582.77
227.844	9565.01
227.916	9578.88
227.989	9544.44
228.062	9547.86
228.134	9643.86
228.207	9646.51
228.28	9641.65
228.352	9659.22
228.425	9664.14
228.498	9705.22
228.57	9680.57
228.643	9743.63
228.716	9738.57
228.788	9722
228.861	9720.12
228.934	9786.29
229.006	9792.69
229.079	9795.92
229.151	9784.69
229.224	9746.13
229.296	9776.28
229.369	9883.66
229.442	9937.57
229.514	9915
229.587	9969.32
229.659	9884.01
229.732	9901.5
229.804	9943.4
229.877	10027.91
229.949	10064.67
230.022	10125.05
230.094	10133.52
230.167	10116.61
230.239	10071.58
230.312	10062.33
230.384	10132.97
230.457	10131.43
230.529	10138.51
230.602	10142.99
230.674	10151.66
230.747	10199.18
230.819	10228.28
230.892	10106.02
230.964	10105.44
231.037	10138.17
231.109	10120.35
231.181	10167.36
231.254	10125.45
231.326	10112.35
231.399	10080.4
231.471	10048.7
231.544	9956.67
231.616	10000.5
231.688	10015.67
231.761	10007.49
231.833	9995.69
231.905	9907.62
231.978	9908.05
232.05	9894.33
232.122	9893.36
232.195	9865.33
232.267	9906.9
232.339	9886.24
232.412	9957.75
232.484	9931.01
232.556	9906.99
232.629	9977.77
232.701	9993.28
232.773	10008.55
232.846	9999.3
232.918	10010.24
232.99	10027.44
233.062	10080.96
233.135	10089.49
233.207	10047.53
233.279	10093.18
233.351	10126.94
233.424	10129.35
233.496	10102.57
233.568	10189.43
233.64	10153.74
233.713	10176.95
233.785	10173.68
233.857	10186.01
233.929	10133.03
234.001	10202.61
234.074	10270.61
234.146	10202.1
234.218	10202.92
234.29	10202.87
234.362	10189.14
234.434	10144.96
234.507	10110.71
234.579	10050.83
234.651	10034.45
234.723	10073.33
234.795	10096.26
234.867	10088.7
234.939	10154.31
235.012	10176.71
235.084	10189.77
235.156	10227.53
235.228	10213.66
235.3	10196.08
235.372	10207.93
235.444	10267.66
235.516	10181.55
235.588	10194.12
235.66	10213.87
235.732	10186.9
235.804	10399.15
235.876	10449.43
235.948	10511.88
236.02	10529.12
236.092	10542.32
236.164	10559.61
236.236	10552.39
236.308	10551.09
236.38	10584.28
236.452	10562.84
236.524	10582.01
236.596	10642.99
236.668	10680.14
236.74	10701.14
236.812	10738.34
236.884	10780.89
236.956	10795.15
237.028	10794.43
237.1	10769.81
237.172	10843.59
237.244	10923.97
237.316	10796.13
237.388	10782.01
237.46	10755.08
237.532	10816.85
237.604	10817.96
237.675	10897.71
237.747	10948.17
237.819	10934.63
237.891	10944.56
237.963	10937.43
238.035	10934
238.107	10826.24
238.178	10891.6
238.25	10901.28
238.322	10996.43
238.394	10941.06
238.466	10946.99
238.538	10993.58
238.609	11046.58
238.681	10989.8
238.753	10960.69
238.825	10986.87
238.897	11016.88
238.968	11112.7
239.04	11097.86
239.112	11220.69
239.184	11180.35
239.255	11175.72
239.327	11212.92
239.399	11237.16
239.471	11284
239.542	11323.13
239.614	11389.53
239.686	11301.05
239.758	11361.43
239.829	11321.9
239.901	11394.38
239.973	11403.06
240.044	11432.65
240.116	11443.73
240.188	11461.75
240.259	11488.36
240.331	11474.24
240.403	11513.08
240.474	11454.8
240.546	11445.5
240.618	11380.19
240.689	11375.32
240.761	11398.46
240.833	11473.12
240.904	11467.77
240.976	11469.12
241.048	11485.7
241.119	11523.01
241.191	11584.02
241.262	11653.58
241.334	11652.08
241.405	11658.73
241.477	11667.94
241.549	11681.63
241.62	11713.73
241.692	11757.15
241.763	11818.85
241.835	11838.57
241.906	11855.77
241.978	11826.28
242.049	11901.03
242.121	11967.31
242.192	12044.76
242.264	12012.37
242.335	11959.93
242.407	12006.73
242.478	12013.72
242.55	12043.17
242.621	12028.52
242.693	12021.38
242.764	12003.79
242.836	12005.91
242.907	12039.75
242.979	12071.17
243.05	12101.2
243.122	12126.75
243.193	12132.63
243.264	12053.68
243.336	12058.98
243.407	12104.15
243.479	12193.08
243.55	12202.57
243.622	12215.11
243.693	12208.26
243.764	12281.24
243.836	12257.58
243.907	12255.17
243.978	12263.94
244.05	12291.66
244.121	12240.42
244.192	12287.03
244.264	12241.62
244.335	12265.53
244.407	12212.03
244.478	12236.95
244.549	12228.42
244.62	12178.53
244.692	12176.5
244.763	12230.15
244.834	12221.18
244.906	12196.45
244.977	12215.64
245.048	12274.21
245.119	12254.11
245.191	12239.6
245.262	12172.84
245.333	12248.22
245.405	12263.21
245.476	12299.32
245.547	12314.55
245.618	12376.63
245.689	12389.7
245.761	12430.72
245.832	12434.82
245.903	12490.83
245.974	12516.38
246.045	12522.88
246.117	12611.67
246.188	12594.71
246.259	12575.81
246.33	12600.83
246.401	12614.28
246.473	12583.91
246.544	12571.42
246.615	12629.66
246.686	12624.4
246.757	12711.02
246.828	12694.49
246.899	12766.89
246.97	12729.97
247.042	12719.9
247.113	12767.52
247.184	12859.45
247.255	12856.41
247.326	12882.78
247.397	12889.68
247.468	12900.86
247.539	12924.67
247.61	12879.26
247.681	12929.68
247.752	12997.56
247.823	12966.61
247.894	12991.48
247.965	12964.83
248.037	12951.72
248.108	12897
248.179	12914.36
248.25	12902.26
248.321	12939.42
248.392	12891.65
248.463	12982.18
248.534	12985.07
248.605	13009.41
248.675	12992.35
248.746	13011.34
248.817	13032.6
248.888	13048.41
248.959	12992.78
249.03	13021.9
249.101	13034.29
249.172	13023.01
249.243	12939.76
249.314	13012.07
249.385	13016.79
249.456	13047.02
249.527	13038.48
249.598	13075.22
249.669	13082.45
249.739	13096.14
249.81	13109.83
249.881	13063.07
249.952	13062.97
250.023	13057.86
250.094	12997.99
250.165	12952.44
250.235	12948.96
250.306	12949.4
250.377	12912.86
250.448	12940.09
250.519	12863.35
250.59	12929.73
250.66	12919.95
250.731	12997.17
250.802	12988.73
250.873	13003.73
250.944	13029.13
251.014	13017.95
251.085	13112.57
251.156	13138.17
251.227	13194.96
251.297	13250.2
251.368	13316.82
251.439	13349.36
251.51	13407.11
251.58	13397.81
251.651	13390.24
251.722	13445.1
251.792	13397.57
251.863	13411.31
251.934	13482.27
252.005	13611.5
252.075	13613.82
252.146	13672.2
252.217	13721.46
252.287	13775.12
252.358	13785.05
252.429	13859.19
252.499	13859.81
252.57	13860.83
252.641	13913.18
252.711	13914.82
252.782	13863
252.852	13943.6
252.923	13957.04
252.994	13969.58
253.064	14027.71
253.135	14021.4
253.205	14005.11
253.276	14087.68
253.347	14160.14
253.417	14143.22
253.488	14123.36
253.558	14115.02
253.629	14112.9
253.699	14127.07
253.77	14155.94
253.841	14149.48
253.911	14167.08
253.982	14181.06
254.052	14212.63
254.123	14215.52
254.193	14220.49
254.264	14373.39
254.334	14332.22
254.405	14286.62
254.475	14251.57
254.546	14258.47
254.616	14320.46
254.687	14349
254.757	14368.18
254.827	14367.22
254.898	14385.83
254.968	14396.67
255.039	14371.65
255.109	14421.3
255.18	14391.27
255.25	14320.8
255.321	14358.2
255.391	14308.84
255.461	14403.08
255.532	14316.61
255.602	14305.09
255.673	14255.14
255.743	14214.51
255.813	14145.67
255.884	14202.32
255.954	14239.77
256.024	14304.46
256.095	14302.97
256.165	14266.86
256.235	14298.53
256.306	14283.44
256.376	14328.08
256.446	14364.71
256.517	14410.61
256.587	14445.6
256.657	14471.25
256.728	14493.66
256.798	14499.01
256.868	14502.97
256.938	14473.61
257.009	14522.97
257.079	14563.18
257.149	14668.02
257.219	14605.45
257.29	14643.92
257.36	14579.18
257.43	14627.34
257.5	14557.1
257.571	14550.84
257.641	14598.66
257.711	14557.06
257.781	14591.96
257.852	14611.91
257.922	14546.11
257.992	14542.98
258.062	14542.64
258.132	14589.54
258.202	14595.18
258.273	14611.38
258.343	14684.94
258.413	14672.21
258.483	14682.72
258.553	14650.42
258.623	14622.76
258.693	14659.44
258.764	14736.37
258.834	14810.27
258.904	14822.76
258.974	14809.74
259.044	14825.17
259.114	14849.56
259.184	14883.3
259.254	14885.47
259.324	14832.88
259.394	14884.94
259.464	14971.47
259.535	14972.19
259.605	14959.32
259.675	14953.44
259.745	14992.77
259.815	14965.2
259.885	14961.05
259.955	15074.94
260.025	15065.35
260.095	15076.49
260.165	15098.61
260.235	15154.33
260.305	15141.07
260.375	15106.66
260.445	15212.46
260.515	15289.39
260.585	15340.73
260.655	15344.82
260.725	15396.01
260.795	15431.44
260.865	15501.05
260.934	15459.5
261.004	15492.13
261.074	15496.66
261.144	15557.2
261.214	15593.21
261.284	15604.63
261.354	15654.81
261.424	15610.72
261.494	15691.55
261.564	15697.19
261.634	15733.01
261.703	15668.03
261.773	15691.84
261.843	15732.29
261.913	15719.32
261.983	15647.07
262.053	15668.51
262.123	15659.02
262.192	15615.11
262.262	15666.54
262.332	15617.13
262.402	15659.69
262.472	15673.72
262.541	15616.74
262.611	15660.46
262.681	15636.79
262.751	15663.93
262.821	15669.71
262.89	15629.71
262.96	15653.28
263.03	15735.17
263.1	15753.48
263.169	15778.21
263.239	15821.64
263.309	15888.68
263.379	15920.68
263.448	15942.47
263.518	15954.62
263.588	15975.49
263.657	16047.59
263.727	16082.87
263.797	16097.19
263.867	16090.83
263.936	16049.76
264.006	16119.42
264.076	16122.55
264.145	16112.96
264.215	16101.77
264.285	16140.24
264.354	16095.8
264.424	16078.69
264.494	16023.84
264.563	16012.85
264.633	16083.84
264.702	16097.1
264.772	16035.84
264.842	16031.26
264.911	16065.15
264.981	16034.83
265.05	16054.16
265.12	16051.61
265.19	16064.76
265.259	16118.31
265.329	16154.8
265.398	16183.43
265.468	16278.85
265.537	16266.03
265.607	16308.64
265.676	16362.14
265.746	16389.23
265.815	16460.32
265.885	16472.08
265.955	16462.88
266.024	16467.17
266.094	16415.6
266.163	16483.55
266.232	16559.51
266.302	16564.52
266.371	16592.47
266.441	16609.15
266.51	16657.44
266.58	16659.9
266.649	16641.15
266.719	16688.14
266.788	16713.68
266.858	16785.01
266.927	16712.58
266.996	16747.66
267.066	16780
267.135	16744.53
267.205	16781.59
267.274	16800.58
267.343	16858.85
267.413	16876.39
267.482	16934.47
267.552	16993.22
267.621	16941.22
267.69	16889.75
267.76	16921.36
267.829	16951.34
267.898	16968.11
267.968	16937.22
268.037	16977.7
268.106	17028.26
268.176	16996.5
268.245	17010.52
268.314	17005.51
268.384	17072.98
268.453	17093.22
268.522	17113.8
268.592	17187.01
268.661	17178.38
268.73	17215.93
268.799	17201.52
268.869	17287.4
268.938	17243.45
269.007	17228.65
269.076	17258.44
269.146	17320.99
269.215	17351.06
269.284	17431.25
269.353	17439.45
269.422	17462.77
269.492	17459.06
269.561	17371.4
269.63	17408.27
269.699	17402.82
269.768	17414.96
269.838	17437.61
269.907	17480.75
269.976	17451.88
270.045	17384.12
270.114	17420.21
270.183	17426.62
270.253	17457.42
270.322	17403.54
270.391	17429.51
270.46	17498.72
270.529	17538.09
270.598	17577.08
270.667	17589.22
270.736	17556.79
270.806	17588.16
270.875	17645.75
270.944	17661.42
271.013	17805.46
271.082	17832.93
271.151	17873.41
271.22	17836.88
271.289	17844.06
271.358	17851.24
271.427	17892.35
271.496	17928.5
271.565	17920.79
271.634	17937.85
271.703	18083.09
271.772	18153.89
271.841	18167.86
271.91	18130.47
271.979	18157.6
272.048	18123.82
272.117	18165.5
272.186	18162.61
272.255	18213.16
272.324	18256.77
272.393	18286.03
272.462	18267.43
272.531	18290.56
272.6	18298.6
272.669	18376.58
272.738	18387.62
272.807	18416.53
272.876	18398.94
272.945	18543.08
273.013	18608.13
273.082	18669.63
273.151	18561.97
273.22	18602.16
273.289	18629.92
273.358	18728.42
273.427	18738.78
273.496	18794.49
273.564	18840.89
273.633	18893.03
273.702	18878.87
273.771	18889.13
273.84	18932.31
273.909	18973.56
273.977	19002.28
274.046	19019.39
274.115	19077.75
274.184	19068.25
274.253	19084.44
274.322	19166.8
274.39	19104.83
274.459	19105.89
274.528	19062.42
274.597	19082.37
274.665	19099.72
274.734	19180.2
274.803	19186.17
274.872	19206.85
274.94	19196.44
275.009	19424.7
275.078	19420.51
275.147	19449.18
275.215	19475.64
275.284	19534.38
275.353	19546.77
275.421	19512.94
275.49	19614.29
275.559	19625.03
275.627	19656.36
275.696	19682.52
275.765	19719.87
275.833	19737.22
275.902	19778.52
275.971	19859.33
276.039	19959.33
276.108	20013.74
276.177	20048.97
276.245	20046.12
276.314	20077.06
276.383	20143.47
276.451	19956.12
276.52	20015.97
276.588	20109.8
276.657	20167.54
276.725	20175.3
276.794	20219.2
276.863	20301.46
276.931	20259.29
277	20321.51
277.068	20395.58
277.137	20494.04
277.205	20527.97
277.274	20636.98
277.342	20710.72
277.411	20682.1
277.48	20677.47
277.548	20689.47
277.617	20726.82
277.685	20758.2
277.754	20821.72
277.822	20841.86
277.89	20953.78
277.959	20980.87
278.027	20954.02
278.096	20963.09
278.164	21099.94
278.233	21114.49
278.301	21125.14
278.37	21192.57
278.438	21189
278.507	21243.32
278.575	21200.85
278.643	21235.7
278.712	21213.14
278.78	21207.17
278.849	21300.28
278.917	21385.45
278.985	21415.33
279.054	21462.96
279.122	21541.76
279.191	21570.73
279.259	21607.51
279.327	21565.03
279.396	21650.02
279.464	21687.61
279.532	21754.08
279.601	21780.51
279.669	21811.41
279.737	21910.9
279.806	21959.63
279.874	22044.43
279.942	22090.08
280.011	22125.41
280.079	22192.08
280.147	22289.5
280.215	22348.46
280.284	22371.01
280.352	22352.74
280.42	22425.1
280.488	22436.72
280.557	22463.62
280.625	22518.24
280.693	22564.71
280.761	22604.92
280.83	22593.83
280.898	22673.42
280.966	22646.81
281.034	22575.16
281.102	22572.85
281.171	22583.55
281.239	22658.87
281.307	22661.43
281.375	22668.18
281.443	22803.77
281.512	22833.52
281.58	22901.42
281.648	22886.62
281.716	22934.06
281.784	22976.97
281.852	22996.26
281.92	23037.53
281.989	23119.22
282.057	23101.91
282.125	23306.86
282.193	23358.65
282.261	23404.84
282.329	23429.72
282.397	23497.46
282.465	23555.56
282.533	23656.96
282.601	23675.13
282.67	23632.4
282.738	23657.05
282.806	23730.78
282.874	23721.85
282.942	23789.72
283.01	23814.42
283.078	23890.04
283.146	23927.02
283.214	24011.48
283.282	24069.79
283.35	24152.91
283.418	24175.3
283.486	24251.01
283.554	24141.5
283.622	24189.84
283.69	24225.19
283.758	24259.87
283.826	24323.1
283.894	24403.28
283.962	24513.05
284.03	24600.32
284.098	24663.45
284.165	24688.53
284.233	24737.5
284.301	24765.87
284.369	24771.85
284.437	24780.49
284.505	24810.15
284.573	24919.15
284.641	24928.94
284.709	24997.14
284.777	24983.62
284.845	25051.97
284.912	25116.14
284.98	25176.74
285.048	25198.02
285.116	25279.67
285.184	25381.02
285.252	25423.48
285.319	25418.66
285.387	25432.71
285.455	25430.01
285.523	25498.78
285.591	25537.18
285.659	25592.2
285.726	25681.31
285.794	25672.52
285.862	25720.93
285.93	25755.68
285.997	25769.19
286.065	25791.83
286.133	25798.3
286.201	25848.44
286.269	25848.25
286.336	25841.44
286.404	25861.38
286.472	25937.66
286.539	25903.48
286.607	25878.38
286.675	25930.86
286.743	26010.65
286.81	26038.27
286.878	26130.97
286.946	26137.25
287.013	26190.57
287.081	26221.24
287.149	26208.92
287.216	26330.93
287.284	26347.24
287.352	26396.05
287.419	26432.36
287.487	26538.41
287.555	26605.69
287.622	26635.58
287.69	26693.09
287.758	26799.62
287.825	26838.35
287.893	26838.97
287.96	26907.67
288.028	27002.52
288.096	27056.43
288.163	27108.41
288.231	27121.74
288.298	27159.23
288.366	27257.97
288.433	27292.2
288.501	27310.94
288.569	27370.69
288.636	27392.72
288.704	27498.91
288.771	27578.09
288.839	27585.29
288.906	27602.05
288.974	27678.23
289.041	27717.55
289.109	27734.65
289.176	27807.26
289.244	27855.23
289.311	27954.97
289.379	28045.56
289.446	28096.46
289.514	28137.54
289.581	28168.09
289.649	28214.04
289.716	28267.45
289.783	28300.81
289.851	28414.27
289.918	28463.94
289.986	28545.88
290.053	28606.11
290.121	28630.91
290.188	28687.92
290.255	28842.91
290.323	28866.55
290.39	28885.61
290.458	28966.85
290.525	29050.44
290.592	29071.62
290.66	29133.35
290.727	29148.15
290.794	29231.19
290.862	29274.67
290.929	29334.11
290.996	29389.14
291.064	29466.17
291.131	29546.91
291.198	29619.95
291.266	29664.84
291.333	29725.57
291.4	29787.59
291.468	29888.72
291.535	29931.29
291.602	29990.84
291.669	30000.77
291.737	30063.59
291.804	30109.36
291.871	30194.27
291.938	30269.27
292.006	30408.7
292.073	30491.19
292.14	30577.03
292.207	30587.77
292.275	30631.47
292.342	30695.65
292.409	30821.99
292.476	30950.33
292.543	30953.58
292.611	31005.86
292.678	31099.72
292.745	31219.96
292.812	31280.97
292.879	31306.83
292.946	31364.57
293.014	31443.2
293.081	31517.09
293.148	31605.91
293.215	31702.72
293.282	31731.19
293.349	31798.26
293.416	31758.59
293.484	31849.54
293.551	31933.92
293.618	32041.42
293.685	32167.9
293.752	32191.24
293.819	32222.83
293.886	32216.97
293.953	32292.75
294.02	32375.89
294.087	32444.26
294.154	32466.78
294.221	32572.87
294.288	32621.99
294.356	32727.8
294.423	32799.18
294.49	32815.41
294.557	32900.16
294.624	32914.06
294.691	33042.28
294.758	33098.89
294.825	33181.41
294.892	33201.18
294.959	33238.16
295.026	33310.39
295.093	33332.3
295.16	33382.29
295.226	33438.04
295.293	33577.14
295.36	33643.53
295.427	33737.56
295.494	33823.05
295.561	33906.77
295.628	34029.47
295.695	34135.21
295.762	34196.36
295.829	34270.37
295.896	34382.79
295.963	34468.72
296.03	34562.88
296.096	34631.57
296.163	34727.65
296.23	34838.62
296.297	34938.36
296.364	34998.74
296.431	35072.86
296.498	35122.47
296.564	35272.42
296.631	35338.67
296.698	35339.55
296.765	35469.31
296.832	35461.07
296.899	35475.43
296.965	35576.05
297.032	35553.43
297.099	35682.15
297.166	35765.7
297.233	35810.3
297.299	35843.82
297.366	35903.7
297.433	35957.9
297.5	36026.24
297.566	36075.3
297.633	36130.39
297.7	36201.97
297.767	36237.1
297.833	36311.6
297.9	36384.58
297.967	36381.33
298.033	36476.95
298.1	36631.03
298.167	36654.29
298.234	36741.25
298.3	36825.56
298.367	36868.42
298.434	36951.39
298.5	36945.61
298.567	36972.8
298.634	37029.79
298.7	37149.93
298.767	37210.43
298.834	37316.41
298.9	37345.35
298.967	37382.73
299.033	37459.55
299.1	37542.49
299.167	37647.58
299.233	37677.59
299.3	37757.85
299.366	37864.6
299.433	37963.73
299.5	37923.09
299.566	37973.97
299.633	38066.58
299.699	38149.33
299.766	38195.95
299.832	38252.64
299.899	38320.53
299.965	38428.3
300.032	38462.63
300.099	38525.68
300.165	38581.73
300.232	38619.67
300.298	38673.28
300.365	38765.57
300.431	38808.46
300.498	38843.87
300.564	38908.96
300.631	38989.4
300.697	39089.86
300.763	39125.42
300.83	39153.84
300.896	39254.34
300.963	39341.64
301.029	39411.7
301.096	39471.75
301.162	39561.09
301.229	39582.57
301.295	39609.92
301.361	39661.37
301.428	39723.45
301.494	39724.67
301.561	39793.23
301.627	39850.85
301.693	39912.7
301.76	39965.17
301.826	40004.39
301.892	40099.39
301.959	40184.62
302.025	40217.66
302.092	40248.91
302.158	40328.6
302.224	40387.89
302.291	40405.58
302.357	40446.54
302.423	40468.85
302.49	40493.29
302.556	40570.62
302.622	40629.28
302.688	40719.09
302.755	40800.07
302.821	40865.43
302.887	40956.06
302.954	40988.91
303.02	41069.36
303.086	41144.01
303.152	41172.39
303.219	41205.69
303.285	41255.37
303.351	41321.34
303.417	41382.39
303.483	41406.64
303.55	41436.77
303.616	41477.85
303.682	41527.43
303.748	41549.44
303.815	41657.03
303.881	41735.3
303.947	41736.9
304.013	41788.63
304.079	41802.48
304.145	41777.93
304.212	41836.99
304.278	41841.32
304.344	41873.4
304.41	41863.78
304.476	41868.49
304.542	41907.28
304.608	41973.25
304.674	41965.47
304.741	42001.41
304.807	42051.59
304.873	42111.82
304.939	42212.42
305.005	42194.39
305.071	42234.88
305.137	42300.37
305.203	42263.9
305.269	42305.04
305.335	42395.39
305.401	42438.18
305.467	42474.94
305.533	42565.77
305.599	42626.17
305.666	42708.48
305.732	42767.32
305.798	42862.92
305.864	42991.03
305.93	43053.32
305.996	43093.78
306.062	43136.96
306.128	43159.87
306.194	43174.46
306.259	43216.82
306.325	43221.44
306.391	43307.8
306.457	43370.68
306.523	43411.92
306.589	43539.27
306.655	43553.47
306.721	43524.34
306.787	43521.86
306.853	43608.68
306.919	43592.24
306.985	43607.47
307.051	43616.51
307.117	43628.96
307.183	43633.54
307.248	43588.73
307.314	43643.94
307.38	43690.93
307.446	43754.03
307.512	43766.38
307.578	43820.71
307.644	43831.32
307.709	43882.55
307.775	43903.56
307.841	43925.99
307.907	43967.63
307.973	43928.26
308.039	43971.46
308.104	44045.8
308.17	44093.95
308.236	44088.16
308.302	44132.33
308.368	44136.56
308.433	44181.12
308.499	44209.96
308.565	44213.47
308.631	44266.74
308.696	44233.07
308.762	44238.38
308.828	44272.98
308.894	44240.14
308.959	44215.09
309.025	44232.02
309.091	44256.25
309.156	44273.48
309.222	44328.32
309.288	44324.42
309.354	44289.01
309.419	44321.37
309.485	44302.01
309.551	44359.37
309.616	44353.73
309.682	44376.35
309.748	44407.64
309.813	44432.99
309.879	44443.93
309.945	44460.28
310.01	44463.2
310.076	44517.55
310.141	44532.73
310.207	44513.26
310.273	44586.14
310.338	44637.22
310.404	44627.98
310.469	44621.02
310.535	44634.01
310.601	44609.68
310.666	44666.96
310.732	44747.39
310.797	44736.63
310.863	44738.82
310.928	44756.05
310.994	44805.93
311.059	44844.52
311.125	44870.51
311.191	44951.91
311.256	44965.82
311.322	45025.73
311.387	45007.73
311.453	45843.97
311.518	45895.27
311.584	45939.56
311.649	45990.47
311.715	45994.12
311.78	46032.95
311.846	46043.46
311.911	46094.43
311.976	46135.36
312.042	46112.58
312.107	46110.44
312.173	46114.96
312.238	46147.13
312.304	46176.29
312.369	46189.24
312.434	46187.63
312.5	46196.1
312.565	46111.1
312.631	46163.13
312.696	46159.58
312.761	46206.78
312.827	45402.62
312.892	45472.95
312.958	45487.26
313.023	45495.69
313.088	45530.78
313.154	45519.2
313.219	45520.51
313.284	45526.26
313.35	45548.41
313.415	45566.86
313.48	45574.64
313.546	45639.98
313.611	45692.7
313.676	45689.1
313.741	45682.97
313.807	45729.22
313.872	45781.12
313.937	45845.37
314.003	45906
314.068	45948.9
314.133	46003.09
314.198	46020.08
314.264	45979.65
314.329	45984.76
314.394	46020.56
314.459	46045.73
314.525	46139.88
314.59	46170.5
314.655	46168.65
314.72	46225
314.785	46265.36
314.851	46289.89
314.916	46248.75
314.981	46233.61
315.046	46229.22
315.111	46232.19
315.176	46237.94
315.242	46266.04
315.307	46288.54
315.372	46256.25
315.437	46255.18
315.502	46264.38
315.567	46320.2
315.632	46305.93
315.698	46353.42
315.763	46365.4
315.828	46350.85
315.893	46369.7
315.958	46383.23
316.023	46371.6
316.088	46326.74
316.153	46275.57
316.218	46269.39
316.283	46228.7
316.348	46190.83
316.413	46200.42
316.479	46165.57
316.544	46049.97
316.609	45951.77
316.674	45830.32
316.739	45708.84
316.804	45596.17
316.869	45457.93
316.934	45314.66
316.999	45195.04
317.064	44991.5
317.129	44810
317.194	44665.4
317.259	44472.28
317.324	44267.42
317.389	44090.88
317.454	43919.51
317.518	43761.81
317.583	43635.07
317.648	43520.62
317.713	43358.89
317.778	43116.11
317.843	42972.59
317.908	42808.1
317.973	42621.8
318.038	42471.01
318.103	42298.47
318.168	42143.03
318.233	41993.76
318.297	41767.22
318.362	41580.74
318.427	41398.48
318.492	41263.72
318.557	41052.57
318.622	40903.73
318.687	40764.11
318.751	40568.68
318.816	40394.02
318.881	40220.74
318.946	39971.16
319.011	39749.78
319.075	39534.8
319.14	39343.85
319.205	39121.68
319.27	38939.64
319.335	38724.08
319.399	38515.66
319.464	38352.91
319.529	38084.67
319.594	37860.93
319.658	37692.79
319.723	37477.8
319.788	37297.69
319.853	37018.86
319.917	36823.57
319.982	36548.19
320.047	36334.96
320.112	36151.24
320.176	35889.87
320.241	35679.51
320.306	35488.24
320.37	35253.79
320.435	35069.3
320.5	34880.85
320.564	34644.86
320.629	34407.56
320.694	34211.8
320.758	33982.66
320.823	33715.1
320.888	33531.03
320.952	33272.42
321.017	33025.25
321.082	32793.11
321.146	32572.1
321.211	32361.38
321.275	32131.63
321.34	31895.77
321.405	31638
321.469	31393.96
321.534	31147.35
321.598	30876.33
321.663	30668.7
321.727	30463.64
321.792	30188.73
321.857	29935.74
321.921	29718.97
321.986	29469.98
322.05	29163.56
322.115	28932.45
322.179	28694.81
322.244	28402.5
322.308	28185.83
322.373	27921.46
322.437	27684.97
322.502	27498.37
322.566	27235.04
322.631	27008.03
322.695	26772.32
322.76	26528
322.824	26300.99
322.889	26045.56
322.953	25784.36
323.018	25446.39
323.082	25115.16
323.146	24826.83
323.211	24533.23
323.275	24260.58
323.34	23993.41
323.404	23773.11
323.468	23499.81
323.533	23236.83
323.597	22969.68
323.662	22681.27
323.726	22450.51
323.79	22180.31
323.855	21827.31
323.919	21556.78
323.983	21288.98
324.048	20884.1
324.112	21074.1
324.177	20240.1
324.241	19148.98
324.305	18070.35
324.37	17009.14
324.434	15982.87
324.498	15706.98
324.562	15396.51
324.627	15037.31
324.691	14688.6
324.755	14280.24
324.82	13825.33
324.884	13343.68
324.948	12867.63
325.012	12277.25
325.077	11552.2
