Data from 20250701_urea_2M_exp3_MAYP1162681_01-09-50-202.txt Node
Date: Wed Jul 02 01:09:50 BST 2025
User: adleo
Spectrometer: MAYP116268
Trigger mode: 0
Integration Time (sec): 4.000000E0
Scans to average: 1
Electric dark correction enabled: true
Nonlinearity correction enabled: true
Boxcar width: 10
XAxis mode: Wavelengths
Number of Pixels in Spectrum: 2068
>>>>>Begin Spectral Data<<<<<
179.565	3693.63
179.642	3888.24
179.718	4036.09
179.795	4168.94
179.871	4285.76
179.948	4348.07
180.024	4419.69
180.101	4496.39
180.177	4549.39
180.254	4630.92
180.33	4711.99
180.407	4983.5
180.483	5274.43
180.56	5567.75
180.636	5836.34
180.712	5796.55
180.789	5832.91
180.865	5878.5
180.942	5908.75
181.018	5943.29
181.095	5991.54
181.171	6008.04
181.248	6010.05
181.324	6064.39
181.4	6086.13
181.477	6121.84
181.553	6167.02
181.63	6237.96
181.706	6296.67
181.782	6319.54
181.859	6318.73
181.935	6335.48
182.011	6321.8
182.088	6374.9
182.164	6440.43
182.24	6489.66
182.317	6518.89
182.393	6507.99
182.469	6553.36
182.546	6600.6
182.622	6619.23
182.698	6601.89
182.775	6648.23
182.851	6695.39
182.927	6671.9
183.003	6660.48
183.08	6639.02
183.156	6668.4
183.232	6655.34
183.308	6612.07
183.385	6645.67
183.461	6701
183.537	6700.86
183.613	6740.19
183.69	6708.54
183.766	6669.52
183.842	6689.7
183.918	6707.03
183.995	6754.24
184.071	6768.22
184.147	6749.87
184.223	6713.87
184.299	6757.35
184.375	6716.05
184.452	6740.04
184.528	6866.31
184.604	6902.75
184.68	6946.5
184.756	6975.24
184.832	6991.71
184.908	7014.18
184.985	7013.41
185.061	6959.95
185.137	6991.28
185.213	6955.5
185.289	6963.47
185.365	6945.66
185.441	6942.44
185.517	6991.32
185.593	6978.16
185.669	6967.54
185.745	7000.93
185.822	7055.66
185.898	7023.32
185.974	7057.41
186.05	7030.5
186.126	6955.68
186.202	6934.55
186.278	6922.35
186.354	6888.66
186.43	6908.75
186.506	6902.66
186.582	6896.51
186.658	6916.82
186.734	6851.41
186.81	6858.32
186.886	6868.31
186.962	6906.02
187.038	6893.57
187.114	6864.1
187.19	6896.59
187.266	6864.51
187.341	6867.87
187.417	6843.81
187.493	6846.93
187.569	6860.96
187.645	6839.97
187.721	6800.14
187.797	6825.64
187.873	6836.31
187.949	6820.03
188.025	6798.83
188.101	6805.7
188.176	6830
188.252	6821.12
188.328	6846.03
188.404	6848.19
188.48	6831.29
188.556	6809.71
188.632	6806.69
188.707	6806.4
188.783	6791.79
188.859	6776
188.935	6735.74
189.011	6763.6
189.086	6739.45
189.162	6707.35
189.238	6698.9
189.314	6689.25
189.39	6671.48
189.465	6650.39
189.541	6703.09
189.617	6652.29
189.693	6635.59
189.768	6645.63
189.844	6724.5
189.92	6695.41
189.996	6720.2
190.071	6757.57
190.147	6753.1
190.223	6787.55
190.298	6764.59
190.374	6716.37
190.45	6760.44
190.526	6789.17
190.601	6772.16
190.677	6779.79
190.753	6869.4
190.828	6891.2
190.904	6943.77
190.98	6993.84
191.055	7032.76
191.131	7002.34
191.207	7075.97
191.282	7110.83
191.358	7073.65
191.433	7025.77
191.509	7075.02
191.585	7066.32
191.66	7067.72
191.736	7099.81
191.811	7071.08
191.887	7128.61
191.963	7208.75
192.038	7224.17
192.114	7230.13
192.189	7240.41
192.265	7233.55
192.34	7164.31
192.416	7152.39
192.491	7137.2
192.567	7141.29
192.642	7144.85
192.718	7144.51
192.793	7103.76
192.869	7085.65
192.944	7098.96
193.02	7125.1
193.095	7136.01
193.171	7153.21
193.246	7151.05
193.322	7139.23
193.397	7133.9
193.473	7082.7
193.548	7020.52
193.624	7041.52
193.699	7032.01
193.775	7088.3
193.85	7091.09
193.925	7115.98
194.001	7113.34
194.076	7086.58
194.152	7053.22
194.227	7032.27
194.302	7004.03
194.378	7009.89
194.453	7003.99
194.529	7046.09
194.604	6994.77
194.679	6973.05
194.755	6911.49
194.83	6952.6
194.905	6940.35
194.981	6973.31
195.056	6948.44
195.131	6970.34
195.207	6963.27
195.282	6934.4
195.357	6865.91
195.433	6919.48
195.508	6878.82
195.583	6905.91
195.659	6959.31
195.734	6979.06
195.809	6974.84
195.884	7006.1
195.96	7013.59
196.035	7065.62
196.11	7048.22
196.185	7088.58
196.261	7097.99
196.336	7203.21
196.411	7154.75
196.486	7176.09
196.561	7154.65
196.637	7187.46
196.712	7247.99
196.787	7256.21
196.862	7308.06
196.937	7338.47
197.013	7351.26
197.088	7386.91
197.163	7454.24
197.238	7507.4
197.313	7509.95
197.388	7549.71
197.464	7648.98
197.539	7686.04
197.614	7663.4
197.689	7708.31
197.764	7760.79
197.839	7830.02
197.914	7811.31
197.989	7892.1
198.065	7935.14
198.14	8105.31
198.215	8194.39
198.29	8228.75
198.365	8267.14
198.44	8305.95
198.515	8408.39
198.59	8465.36
198.665	8553.94
198.74	8585.08
198.815	8593.89
198.89	8667.99
198.965	8767.72
199.04	8756.07
199.115	8809.29
199.19	8945.08
199.265	8950.71
199.34	8987.63
199.415	9100.56
199.49	9173.61
199.565	9197.29
199.64	9280.43
199.715	9266.75
199.79	9286.05
199.865	9306.27
199.94	9309.11
200.015	9408.89
200.09	9421.84
200.165	9440.62
200.24	9461.52
200.315	9590.79
200.39	9635.67
200.464	9662.83
200.539	9668.47
200.614	9718.35
200.689	9796.9
200.764	9819.79
200.839	9876.25
200.914	9890.22
200.989	9856.54
201.063	9905.38
201.138	9853.06
201.213	9851.81
201.288	9785.98
201.363	9804.38
201.438	9807.55
201.512	9859.36
201.587	9802.42
201.662	9816.25
201.737	9852.76
201.812	9880.65
201.886	9774.16
201.961	9804.23
202.036	9761.23
202.111	9753.14
202.186	9656.49
202.26	9601.82
202.335	9533.23
202.41	9517.49
202.485	9464.34
202.559	9404.39
202.634	9310.01
202.709	9338.84
202.784	9276.1
202.858	9277.21
202.933	9217.03
203.008	9192.86
203.082	9125.66
203.157	9119.44
203.232	8973.55
203.306	8902.67
203.381	8793.96
203.456	8721.08
203.53	8645.02
203.605	8577.54
203.68	8496.37
203.754	8472.77
203.829	8420.25
203.904	8349.92
203.978	8307.18
204.053	8318.29
204.127	8270.23
204.202	8266.43
204.277	8205.87
204.351	8178.59
204.426	8149.38
204.5	8118.54
204.575	8001.6
204.65	8035.77
204.724	8013.29
204.799	8038.28
204.873	8027.98
204.948	8019.18
205.022	7972.39
205.097	7942.12
205.171	7989.78
205.246	8016.05
205.32	8017.97
205.395	8012.05
205.469	7984.42
205.544	8003.72
205.618	7938.88
205.693	7972.98
205.767	7930.71
205.842	8004.71
205.916	7989.17
205.991	7963.29
206.065	7982.39
206.14	8033.85
206.214	8013.59
206.289	7987.51
206.363	8030.75
206.438	8037.34
206.512	8060.96
206.586	8128.09
206.661	8158.8
206.735	8081.79
206.81	8081.36
206.884	8124.73
206.958	8080.54
207.033	8137.95
207.107	8162.31
207.181	8275.15
207.256	8258.69
207.33	8322.76
207.405	8362.73
207.479	8423.88
207.553	8447.02
207.628	8393.02
207.702	8432.8
207.776	8415.05
207.851	8423.85
207.925	8473.96
207.999	8463.52
208.073	8461.93
208.148	8467.85
208.222	8426.03
208.296	8538.56
208.371	8598.12
208.445	8635.57
208.519	8736.36
208.593	8774.28
208.668	8761.67
208.742	8770.77
208.816	8777.07
208.89	8825.13
208.965	8819.25
209.039	8847.42
209.113	8906.43
209.187	8977.17
209.261	8963.51
209.336	9028.2
209.41	9095.93
209.484	9096.32
209.558	9167.57
209.632	9208.72
209.707	9252.73
209.781	9326.63
209.855	9376.57
209.929	9432.55
210.003	9457.3
210.077	9453.02
210.151	9621.12
210.226	9736.06
210.3	9825.16
210.374	9904.88
210.448	9916.92
210.522	9953.82
210.596	9993.08
210.67	10023.09
210.744	10176.51
210.818	10285.38
210.892	10352.39
210.966	10333.32
211.041	10384.23
211.115	10374.79
211.189	10450.8
211.263	10499.41
211.337	10515.93
211.411	10563.39
211.485	10544.6
211.559	10578.12
211.633	10586.79
211.707	10472.38
211.781	10497.64
211.855	10378.2
211.929	10345.6
212.003	10279.15
212.077	10303.24
212.151	10330.42
212.225	10360.87
212.299	10325.98
212.373	10281.08
212.447	10268.17
212.52	10370.74
212.594	10375.07
212.668	10408.41
212.742	10361.39
212.816	10342.55
212.89	10324.29
212.964	10315.38
213.038	10315.48
213.112	10355.23
213.186	10401.47
213.26	10322.51
213.333	10155.31
213.407	10165.14
213.481	10166.29
213.555	10201.58
213.629	10158.98
213.703	10095.39
213.777	10079.73
213.85	10006.6
213.924	10112.51
213.998	10094.39
214.072	10059.21
214.146	10006.85
214.219	9986.42
214.293	9962.87
214.367	9952.85
214.441	9971.3
214.515	9924.32
214.588	9835.32
214.662	9700.86
214.736	9613.26
214.81	9627.26
214.883	9645.55
214.957	9594.04
215.031	9542.45
215.105	9448.68
215.178	9379.14
215.252	9346.16
215.326	9239.51
215.4	9151.01
215.473	8967
215.547	8884.8
215.621	8810.23
215.694	8804.55
215.768	8703.52
215.842	8636.77
215.915	8563.73
215.989	8451.71
216.063	8386.13
216.136	8366.06
216.21	8344.18
216.284	8353.71
216.357	8329.21
216.431	8283.84
216.504	8278.36
216.578	8331.88
216.652	8341.06
216.725	8325.76
216.799	8329.22
216.873	8317.73
216.946	8326.29
217.02	8291.05
217.093	8261.51
217.167	8166.59
217.24	8084.83
217.314	8055.12
217.387	8009.89
217.461	7966.07
217.535	7990.65
217.608	7931.3
217.682	7902.77
217.755	7916.39
217.829	7856.06
217.902	7838.36
217.976	7818.36
218.049	7769.16
218.123	7691.07
218.196	7686.69
218.27	7648.17
218.343	7577.3
218.417	7573.94
218.49	7554.85
218.563	7594.94
218.637	7602.21
218.71	7672.72
218.784	7696.81
218.857	7727.1
218.931	7749.73
219.004	7760.99
219.077	7776.29
219.151	7795.52
219.224	7786.67
219.298	7781.09
219.371	7829.19
219.444	7787.23
219.518	7798.57
219.591	7819.87
219.665	7924.41
219.738	7936.76
219.811	7919.17
219.885	7966.11
219.958	7997
220.031	7999.26
220.105	8021.77
220.178	8027.55
220.251	8003.63
220.325	8028.99
220.398	8048.71
220.471	8070.3
220.544	8105.18
220.618	8079.63
220.691	8101.85
220.764	8122.67
220.838	8149.71
220.911	8143.41
220.984	8235.7
221.057	8273.56
221.131	8293.95
221.204	8194.75
221.277	8271.79
221.35	8393.67
221.424	8384.67
221.497	8393.86
221.57	8414.3
221.643	8447.75
221.716	8493.57
221.79	8492.61
221.863	8499.73
221.936	8508.11
222.009	8519.7
222.082	8545.3
222.155	8558.78
222.229	8628
222.302	8654.22
222.375	8662.93
222.448	8695.85
222.521	8698.5
222.594	8697.11
222.667	8674.84
222.74	8733.49
222.814	8728.29
222.887	8711.19
222.96	8762.79
223.033	8804.58
223.106	8831.14
223.179	8855.36
223.252	8865.14
223.325	8904.07
223.398	8923.18
223.471	8955.91
223.544	8982.52
223.617	9000.67
223.69	9021.99
223.763	8977.51
223.837	9002.73
223.91	9021.99
223.983	8970.98
224.056	8928
224.129	8954.43
224.202	9007.49
224.275	8992.62
224.348	8959.79
224.42	8925.9
224.493	8868.86
224.566	8848.25
224.639	8867.36
224.712	8842.94
224.785	8832.64
224.858	8814.78
224.931	8793.07
225.004	8750.33
225.077	8747.73
225.15	8651.93
225.223	8649.91
225.296	8742.57
225.369	8681.69
225.442	8655.7
225.514	8676.68
225.587	8701.31
225.66	8705.26
225.733	8711.95
225.806	8728.46
225.879	8715.61
225.952	8682.56
226.025	8734.87
226.097	8783.37
226.17	8770.23
226.243	8705.27
226.316	8699.97
226.389	8708.69
226.461	8728.76
226.534	8747.48
226.607	8734.53
226.68	8822.68
226.753	8819.98
226.825	8726.7
226.898	8789.84
226.971	8793.59
227.044	8810
227.117	8824.59
227.189	8842.45
227.262	8874.04
227.335	8885.11
227.407	8883.91
227.48	8915.85
227.553	8929.53
227.626	8910.74
227.698	8921.77
227.771	8960.2
227.844	8940.52
227.916	8954.33
227.989	8920.78
228.062	8917.07
228.134	9004.08
228.207	9002.25
228.28	8995.22
228.352	9006.68
228.425	9010.48
228.498	9056.61
228.57	9036.92
228.643	9090.52
228.716	9093.98
228.788	9081.22
228.861	9077.28
228.934	9145.49
229.006	9153.53
229.079	9151.41
229.151	9135.27
229.224	9101.01
229.296	9128.93
229.369	9232.33
229.442	9285.5
229.514	9265.78
229.587	9307.37
229.659	9237.21
229.732	9250.21
229.804	9288.58
229.877	9372.24
229.949	9400.32
230.022	9453.36
230.094	9454.22
230.167	9442.9
230.239	9397.89
230.312	9387.88
230.384	9462.83
230.457	9456.18
230.529	9464.56
230.602	9465.52
230.674	9477.7
230.747	9527.71
230.819	9562.14
230.892	9441.32
230.964	9438.28
231.037	9460.66
231.109	9453.68
231.181	9493.15
231.254	9459.02
231.326	9444.82
231.399	9413.93
231.471	9391.34
231.544	9307.25
231.616	9359.33
231.688	9361.4
231.761	9356.45
231.833	9341.96
231.905	9251.07
231.978	9252.81
232.05	9244.38
232.122	9244.77
232.195	9222.52
232.267	9248.72
232.339	9222.9
232.412	9294.34
232.484	9268.77
232.556	9254.04
232.629	9318.35
232.701	9338.14
232.773	9349.41
232.846	9341.17
232.918	9354.08
232.99	9366.51
233.062	9414.91
233.135	9425.21
233.207	9394.1
233.279	9436.75
233.351	9472.62
233.424	9475.66
233.496	9446.52
233.568	9523.96
233.64	9488.19
233.713	9508.99
233.785	9507.89
233.857	9521.42
233.929	9461.77
234.001	9531.96
234.074	9591.41
234.146	9521.28
234.218	9513.43
234.29	9520.07
234.362	9504.14
234.434	9452.65
234.507	9413.7
234.579	9355.82
234.651	9331.4
234.723	9364.97
234.795	9381.25
234.867	9369.74
234.939	9428.88
235.012	9445.77
235.084	9450.54
235.156	9493.64
235.228	9469.22
235.3	9452.22
235.372	9463.4
235.444	9526.86
235.516	9444.04
235.588	9455.6
235.66	9479.2
235.732	9451.75
235.804	9474.09
235.876	9525.61
235.948	9593.81
236.02	9617.21
236.092	9635.75
236.164	9653.23
236.236	9647.35
236.308	9643.59
236.38	9678.17
236.452	9660.06
236.524	9680.34
236.596	9743.52
236.668	9772.13
236.74	9802.95
236.812	9838.54
236.884	9867.98
236.956	9879.87
237.028	9871.02
237.1	9852.14
237.172	9918.86
237.244	9994.92
237.316	10045.12
237.388	10023.93
237.46	9998.78
237.532	10057.45
237.604	10050.23
237.675	10118.74
237.747	10172.17
237.819	10161.72
237.891	10170.63
237.963	10160.37
238.035	10159.45
238.107	10041.51
238.178	10102.75
238.25	10107.19
238.322	10193.11
238.394	10149.22
238.466	10145.75
238.538	10191.99
238.609	10233.12
238.681	10176.22
238.753	10161.81
238.825	10183.74
238.897	10215.28
238.968	10298.89
239.04	10282.66
239.112	10397.02
239.184	10359.73
239.255	10349.46
239.327	10382.41
239.399	10393.92
239.471	10444.02
239.542	10481.84
239.614	10558
239.686	10470.59
239.758	10525.52
239.829	10493.52
239.901	10555.57
239.973	10571.75
240.044	10600.13
240.116	10617.19
240.188	10638.24
240.259	10646.19
240.331	10633.85
240.403	10672.49
240.474	10623.43
240.546	10615.57
240.618	10554.62
240.689	10556.83
240.761	10578.04
240.833	10651.67
240.904	10657.79
240.976	10661.98
241.048	10682.07
241.119	10714.94
241.191	10771.98
241.262	10832.76
241.334	10832.81
241.405	10842.64
241.477	10848.9
241.549	10859.12
241.62	10883.21
241.692	10926.72
241.763	10990.82
241.835	11012.17
241.906	11029.13
241.978	11007.16
242.049	11071.06
242.121	11132.16
242.192	11198.95
242.264	11165.12
242.335	11111.1
242.407	11156.88
242.478	11156.49
242.55	11171.43
242.621	11151.91
242.693	11144.93
242.764	11131.82
242.836	11131.57
242.907	11162.23
242.979	11190.03
243.05	11218.22
243.122	11244.83
243.193	11243.09
243.264	11171.04
243.336	11170.56
243.407	11207.09
243.479	11280.73
243.55	11301.36
243.622	11318.28
243.693	11319.82
243.764	11392.59
243.836	11368.02
243.907	11357.32
243.978	11360.55
244.05	11388.17
244.121	11347.83
244.192	11389.47
244.264	11345.95
244.335	11358.91
244.407	11307.44
244.478	11326.67
244.549	11315.59
244.62	11269.56
244.692	11267.49
244.763	11310
244.834	11305.37
244.906	11287.2
244.977	11311.3
245.048	11356.08
245.119	11331.36
245.191	11299.21
245.262	11232.22
245.333	11311.34
245.405	11327.63
245.476	11366.81
245.547	11384.12
245.618	11439.01
245.689	11453.51
245.761	11485.28
245.832	11492.94
245.903	11540.79
245.974	11571.93
246.045	11585.18
246.117	11669.91
246.188	11658.69
246.259	11643.55
246.33	11661.05
246.401	11667.84
246.473	11624.51
246.544	11610.73
246.615	11670.3
246.686	11681.67
246.757	11750.49
246.828	11729.38
246.899	11800.63
246.97	11767.52
247.042	11749.78
247.113	11796.15
247.184	11880.08
247.255	11875.79
247.326	11909.48
247.397	11918.73
247.468	11926.16
247.539	11941.72
247.61	11886.44
247.681	11926.87
247.752	11985.15
247.823	11959.02
247.894	11975.03
247.965	11950.74
248.037	11941.14
248.108	11881.62
248.179	11887.26
248.25	11884.17
248.321	11916.37
248.392	11873.08
248.463	11952.36
248.534	11955.3
248.605	11977.38
248.675	11956.7
248.746	11976.27
248.817	11981.09
248.888	12003.99
248.959	11945.19
249.03	11971.74
249.101	11994.59
249.172	11986.3
249.243	11907.74
249.314	11973.92
249.385	11980.72
249.456	12011.17
249.527	12001.87
249.598	12031.03
249.669	12029.54
249.739	12040.77
249.81	12051.71
249.881	12003.17
249.952	11994.59
250.023	11999.03
250.094	11942.05
250.165	11903.68
250.235	11905.61
250.306	11916.16
250.377	11879.63
250.448	11914.81
250.519	11852.2
250.59	11906.81
250.66	11903.73
250.731	11981.56
250.802	11976.31
250.873	11992.8
250.944	12018.73
251.014	12014.2
251.085	12105.02
251.156	12137.36
251.227	12188.98
251.297	12245.72
251.368	12298.45
251.439	12343.81
251.51	12386.57
251.58	12376.3
251.651	12373.75
251.722	12427.83
251.792	12380.84
251.863	12387.78
251.934	12447.94
252.005	12558.66
252.075	12569.26
252.146	12621.66
252.217	12664.94
252.287	12710.6
252.358	12719.71
252.429	12788.06
252.499	12781.75
252.57	12792.59
252.641	12836.27
252.711	12841.96
252.782	12790.04
252.852	12868.95
252.923	12868.37
252.994	12887.17
253.064	12939.09
253.135	12920.58
253.205	12894.83
253.276	12961.74
253.347	13029.85
253.417	13004.79
253.488	12987
253.558	12970.56
253.629	12965.11
253.699	12984.15
253.77	13011.25
253.841	13013.08
253.911	13020.94
253.982	13038.67
254.052	13059.88
254.123	13070.01
254.193	13074.44
254.264	13215.78
254.334	13182.08
254.405	13141.98
254.475	13101.58
254.546	13109.63
254.616	13178.52
254.687	13209.03
254.757	13237.04
254.827	13227.21
254.898	13249.09
254.968	13257.53
255.039	13242.15
255.109	13279.65
255.18	13246.82
255.25	13171.91
255.321	13194.04
255.391	13155.96
255.461	13240.22
255.532	13163.81
255.602	13159.86
255.673	13108.28
255.743	13071.16
255.813	12999.72
255.884	13052.46
255.954	13100.81
256.024	13162.18
256.095	13163.87
256.165	13127.09
256.235	13145.98
256.306	13137.02
256.376	13186.14
256.446	13222.39
256.517	13253.05
256.587	13295.37
256.657	13317.26
256.728	13345.22
256.798	13356.55
256.868	13356.64
256.938	13329.45
257.009	13374
257.079	13403.21
257.149	13502.95
257.219	13437.24
257.29	13475.23
257.36	13418.78
257.43	13450.4
257.5	13389.47
257.571	13381.03
257.641	13421.33
257.711	13384.6
257.781	13419.16
257.852	13433.09
257.922	13370.23
257.992	13376.69
258.062	13369.32
258.132	13414.68
258.202	13416.46
258.273	13432.76
258.343	13499.38
258.413	13474.26
258.483	13475.28
258.553	13445.63
258.623	13418.78
258.693	13455.13
258.764	13521.6
258.834	13584.37
258.904	13607.17
258.974	13593.86
259.044	13604.95
259.114	13631.9
259.184	13664.53
259.254	13680.39
259.324	13632.91
259.394	13678.85
259.464	13753.38
259.535	13761.38
259.605	13752.32
259.675	13743.78
259.745	13781
259.815	13755.55
259.885	13769.19
259.955	13887.48
260.025	13877.89
260.095	13892.3
260.165	13923.1
260.235	13986.44
260.305	13979.26
260.375	13945.66
260.445	14033.73
260.515	14091.77
260.585	14134.53
260.655	14140.41
260.725	14170.54
260.795	14206.7
260.865	14279.24
260.934	14251.58
261.004	14282.04
261.074	14281.22
261.144	14340.8
261.214	14370.88
261.284	14376.14
261.354	14413.79
261.424	14370.7
261.494	14443.63
261.564	14447.73
261.634	14474
261.703	14403.24
261.773	14431.05
261.843	14457.23
261.913	14452.26
261.983	14399.48
262.053	14422.9
262.123	14415.29
262.192	14377.25
262.262	14418.85
262.332	14375.76
262.402	14404.88
262.472	14415.58
262.541	14356.19
262.611	14404.2
262.681	14388.73
262.751	14433.22
262.821	14441.56
262.89	14413.65
262.96	14437.17
263.03	14514.59
263.1	14528.13
263.169	14544.62
263.239	14582.17
263.309	14651.77
263.379	14678.72
263.448	14701.14
263.518	14726.73
263.588	14749.24
263.657	14825.02
263.727	14859.87
263.797	14869.37
263.867	14872.74
263.936	14831.96
264.006	14899.93
264.076	14894.34
264.145	14884.36
264.215	14862.77
264.285	14899.93
264.354	14851.87
264.424	14838.9
264.494	14792.73
264.563	14790.9
264.633	14876.99
264.702	14891.4
264.772	14839.68
264.842	14835.15
264.911	14864.12
264.981	14820.59
265.05	14831.58
265.12	14826.96
265.19	14837.17
265.259	14881.14
265.329	14905.48
265.398	14932.81
265.468	15028.68
265.537	15024.2
265.607	15059.05
265.676	15115.79
265.746	15129.91
265.815	15183.03
265.885	15188.24
265.955	15171.17
266.024	15170.21
266.094	15102.87
266.163	15154.01
266.232	15216.58
266.302	15225.64
266.371	15254.66
266.441	15280.49
266.51	15330.14
266.58	15326.72
266.649	15310.57
266.719	15357.81
266.788	15393.52
266.858	15464.96
266.927	15398.15
266.996	15429.77
267.066	15459.56
267.135	15417.48
267.205	15463.32
267.274	15492.24
267.343	15550.37
267.413	15574.18
267.482	15632.6
267.552	15699.8
267.621	15661.57
267.69	15618
267.76	15648.37
267.829	15675.07
267.898	15693.44
267.968	15673.14
268.037	15717.01
268.106	15774.89
268.176	15744.91
268.245	15756.14
268.314	15750.94
268.384	15808.83
268.453	15825.84
268.522	15856.83
268.592	15930.92
268.661	15917.23
268.73	15948.7
268.799	15937.52
268.869	16017.24
268.938	15972.37
269.007	15965.91
269.076	15981.58
269.146	16042.21
269.215	16072.91
269.284	16142.61
269.353	16137.93
269.422	16149.74
269.492	16144.92
269.561	16061.63
269.63	16098.65
269.699	16090.07
269.768	16107.66
269.838	16136.92
269.907	16184.1
269.976	16152
270.045	16091.08
270.114	16133.49
270.183	16137.35
270.253	16170.51
270.322	16121.49
270.391	16137.92
270.46	16205.45
270.529	16259.43
270.598	16295.04
270.667	16304.49
270.736	16276.88
270.806	16303.96
270.875	16364.07
270.944	16379.35
271.013	16504.66
271.082	16529.77
271.151	16575.27
271.22	16536.66
271.289	16536.47
271.358	16537.77
271.427	16571.41
271.496	16606.69
271.565	16596.33
271.634	16617.49
271.703	16753.68
271.772	16811.13
271.841	16844.97
271.91	16808.48
271.979	16827.23
272.048	16793.11
272.117	16843.13
272.186	16842.84
272.255	16899.67
272.324	16935.57
272.393	16972.1
272.462	16974.27
272.531	16991.24
272.6	17000.3
272.669	17073.46
272.738	17091.15
272.807	17121.12
272.876	17104.16
272.945	17243.53
273.013	17305.94
273.082	17378.67
273.151	17269.08
273.22	17309.85
273.289	17333.56
273.358	17423.59
273.427	17432.94
273.496	17500.94
273.564	17539.01
273.633	17592.6
273.702	17576.36
273.771	17593.47
273.84	17625.08
273.909	17649.08
273.977	17698.72
274.046	17710.86
274.115	17770.09
274.184	17763.97
274.253	17785.13
274.322	17865.8
274.39	17804.36
274.459	17802.91
274.528	17750.96
274.597	17778.05
274.665	17805.47
274.734	17872.65
274.803	17883.73
274.872	17908.55
274.94	17897.42
275.009	18116.18
275.078	18115.8
275.147	18158.64
275.215	18190.06
275.284	18247.94
275.353	18268.42
275.421	18229.33
275.49	18325.47
275.559	18341.71
275.627	18373.67
275.696	18396.03
275.765	18442.24
275.833	18460.75
275.902	18499.97
275.971	18579.97
276.039	18673.75
276.108	18728.83
276.177	18771.53
276.245	18762.8
276.314	18789.79
276.383	18855.52
276.451	18679.55
276.52	18737.52
276.588	18821.86
276.657	18875.83
276.725	18882.33
276.794	18920.79
276.863	18995.68
276.931	18959.39
277	19015.97
277.068	19083.14
277.137	19180.15
277.205	19209.59
277.274	19321.59
277.342	19404.33
277.411	19383.03
277.48	19388.43
277.548	19393.63
277.617	19432.33
277.685	19467.7
277.754	19534.69
277.822	19552.66
277.89	19655.6
277.959	19671.07
278.027	19646.64
278.096	19655.75
278.164	19794.4
278.233	19814.35
278.301	19830.35
278.37	19891.26
278.438	19885.96
278.507	19945.67
278.575	19909.38
278.643	19937.67
278.712	19910.73
278.78	19909.48
278.849	19989.81
278.917	20061.04
278.985	20097.18
279.054	20142.97
279.122	20228.17
279.191	20262.77
279.259	20284.07
279.327	20238.67
279.396	20331.4
279.464	20362.05
279.532	20428.17
279.601	20449.81
279.669	20489.52
279.737	20580.22
279.806	20633.62
279.874	20703.02
279.942	20731.99
280.011	20760.61
280.079	20826.69
280.147	20930.31
280.215	20981.68
280.284	21019.95
280.352	21013.87
280.42	21075.57
280.488	21082.22
280.557	21089.21
280.625	21135.76
280.693	21189.5
280.761	21250.81
280.83	21245.55
280.898	21344.55
280.966	21334.28
281.034	21276.44
281.102	21278.8
281.171	21283.82
281.239	21356.46
281.307	21377.62
281.375	21386.39
281.443	21520.25
281.512	21555
281.58	21613.39
281.648	21601.19
281.716	21634.93
281.784	21684.58
281.852	21706.85
281.92	21746.9
281.989	21842.3
282.057	21832.9
282.125	22025.97
282.193	22062.03
282.261	22111.58
282.329	22124.55
282.397	22172.41
282.465	22229.2
282.533	22317.36
282.601	22349.41
282.67	22311.86
282.738	22326.94
282.806	22413.81
282.874	22400.5
282.942	22461.69
283.01	22485.41
283.078	22561.58
283.146	22598.45
283.214	22678.15
283.282	22738.66
283.35	22825.98
283.418	22844.83
283.486	22900.27
283.554	22801.54
283.622	22847.87
283.69	22884.47
283.758	22910.45
283.826	22978.53
283.894	23054.91
283.962	23155.46
284.03	23243.27
284.098	23301.32
284.165	23341.52
284.233	23389.75
284.301	23429
284.369	23447.03
284.437	23464.54
284.505	23489.76
284.573	23588.23
284.641	23591.85
284.709	23651.61
284.777	23635.59
284.845	23706.99
284.912	23782.94
284.98	23850.75
285.048	23884.41
285.116	23944.17
285.184	24043.53
285.252	24080.57
285.319	24071.84
285.387	24095.43
285.455	24083.13
285.523	24148.15
285.591	24184.85
285.659	24225.46
285.726	24304.96
285.794	24304.48
285.862	24346.69
285.93	24397.96
285.997	24425.84
286.065	24446.54
286.133	24463.23
286.201	24506.06
286.269	24504.76
286.336	24507.7
286.404	24522.03
286.472	24588.22
286.539	24573.27
286.607	24562.13
286.675	24618.67
286.743	24697.55
286.81	24715.7
286.878	24812.82
286.946	24835.5
287.013	24891.65
287.081	24933.19
287.149	24919.88
287.216	25023.38
287.284	25050.83
287.352	25090.35
287.419	25128.91
287.487	25234.64
287.555	25291.3
287.622	25328.12
287.69	25388.59
287.758	25478.79
287.825	25512.81
287.893	25527.67
287.96	25592.27
288.028	25668.39
288.096	25715.26
288.163	25764.88
288.231	25779.46
288.298	25809.34
288.366	25893.24
288.433	25922.1
288.501	25940.06
288.569	26008.21
288.636	26029.79
288.704	26120.65
288.771	26196.4
288.839	26209.96
288.906	26234.4
288.974	26317.18
289.041	26362.02
289.109	26367.62
289.176	26445.19
289.244	26511.28
289.311	26599.37
289.379	26684.1
289.446	26741.48
289.514	26780.79
289.581	26825.32
289.649	26885.92
289.716	26944.36
289.783	26976.14
289.851	27080.16
289.918	27129.41
289.986	27199.64
290.053	27262.39
290.121	27296.49
290.188	27350.5
290.255	27498.01
290.323	27527.48
290.39	27548.88
290.458	27619.78
290.525	27717.61
290.592	27739.74
290.66	27796.79
290.727	27814.58
290.794	27896.87
290.862	27936.36
290.929	27993.81
290.996	28041.02
291.064	28112.29
291.131	28190.12
291.198	28263.83
291.266	28311.96
291.333	28360.52
291.4	28422.97
291.468	28528.47
291.535	28557.23
291.602	28616.83
291.669	28624.91
291.737	28693.64
291.804	28736.71
291.871	28828.42
291.938	28897.9
292.006	29036.35
292.073	29125.07
292.14	29216.65
292.207	29232.9
292.275	29282.94
292.342	29361.63
292.409	29486.13
292.476	29600.2
292.543	29617.22
292.611	29666.27
292.678	29768.24
292.745	29891.9
292.812	29963.89
292.879	29982.37
292.946	30046.74
293.014	30126.96
293.081	30206.84
293.148	30287.63
293.215	30387.89
293.282	30418.07
293.349	30494.88
293.416	30469.08
293.484	30548.8
293.551	30625.13
293.618	30736.18
293.685	30868.13
293.752	30888.6
293.819	30921.81
293.886	30931.88
293.953	31006.94
294.02	31093.4
294.087	31150.82
294.154	31180.21
294.221	31272.17
294.288	31330.74
294.356	31441.26
294.423	31514.82
294.49	31526.2
294.557	31609.54
294.624	31614.76
294.691	31732.72
294.758	31783.57
294.825	31859.16
294.892	31875.96
294.959	31914.61
295.026	31983.01
295.093	31994.21
295.16	32057.34
295.226	32103.35
295.293	32232.52
295.36	32289.82
295.427	32374.32
295.494	32460.87
295.561	32550.49
295.628	32677.95
295.695	32774.03
295.762	32819.87
295.829	32897.76
295.896	33010.59
295.963	33089.98
296.03	33181.68
296.096	33240.04
296.163	33317.16
296.23	33420.01
296.297	33507.52
296.364	33558.64
296.431	33619.92
296.498	33673.37
296.564	33795.79
296.631	33858.07
296.698	33860.16
296.765	33986.69
296.832	33996.24
296.899	34005.7
296.965	34119.22
297.032	34101.85
297.099	34214.57
297.166	34290.06
297.233	34325.27
297.299	34348.83
297.366	34408.49
297.433	34479.87
297.5	34562.66
297.566	34618.15
297.633	34662.14
297.7	34731.3
297.767	34781.24
297.833	34854.24
297.9	34904.18
297.967	34895.7
298.033	34994.12
298.1	35152.68
298.167	35171.94
298.234	35253.38
298.3	35347.73
298.367	35370.63
298.434	35447.05
298.5	35457.87
298.567	35490.62
298.634	35528.89
298.7	35641.4
298.767	35695.21
298.834	35785.76
298.9	35811.96
298.967	35839.13
299.033	35928.39
299.1	36036.42
299.167	36132.1
299.233	36154.37
299.3	36264.13
299.366	36383.49
299.433	36482.04
299.5	36442.96
299.566	36505.95
299.633	36592.98
299.699	36669.82
299.766	36715.11
299.832	36779.58
299.899	36851.58
299.965	36949.18
300.032	36999.95
300.099	37069.61
300.165	37129.77
300.232	37154.14
300.298	37214.04
300.365	37309.33
300.431	37355.8
300.498	37364.05
300.564	37438.58
300.631	37536.17
300.697	37630.81
300.763	37667.71
300.83	37703.26
300.896	37780.9
300.963	37860.29
301.029	37926.82
301.096	37980
301.162	38052.79
301.229	38076.34
301.295	38089.74
301.361	38154.77
301.428	38212.65
301.494	38210.51
301.561	38274.86
301.627	38345.18
301.693	38410.84
301.76	38470.82
301.826	38503.37
301.892	38599.05
301.959	38672.74
302.025	38713.35
302.092	38731.86
302.158	38806.31
302.224	38857.08
302.291	38893.26
302.357	38927.12
302.423	38959.57
302.49	38979.39
302.556	39067.23
302.622	39115.32
302.688	39213.69
302.755	39308.04
302.821	39379.54
302.887	39466.78
302.954	39505.16
303.02	39575.61
303.086	39640.08
303.152	39669.77
303.219	39702.36
303.285	39750.42
303.351	39818.5
303.417	39873.45
303.483	39894.54
303.55	39935.21
303.616	39982.63
303.682	40027.96
303.748	40059.78
303.815	40148.47
303.881	40227.34
303.947	40233.99
304.013	40290.99
304.079	40299.2
304.145	40265.52
304.212	40314.65
304.278	40331.51
304.344	40364.75
304.41	40375.29
304.476	40383.36
304.542	40424.62
304.608	40483.22
304.674	40484.43
304.741	40499.6
304.807	40544.7
304.873	40610.11
304.939	40698.62
305.005	40682.53
305.071	40712.71
305.137	40755.91
305.203	40712.02
305.269	40759.95
305.335	40844.57
305.401	40882.92
305.467	40930.02
305.533	41003.36
305.599	41069.8
305.666	41141.1
305.732	41183.92
305.798	41264.61
305.864	41397.57
305.93	41455.7
305.996	41503.82
306.062	41553.55
306.128	41584.76
306.194	41592
306.259	41632.4
306.325	41630.45
306.391	41709.2
306.457	41774.52
306.523	41834.26
306.589	41966.01
306.655	41981.96
306.721	41953.37
306.787	41968.49
306.853	42043.94
306.919	42033.3
306.985	42040.25
307.051	42062.91
307.117	42085.12
307.183	42100.63
307.248	42039.75
307.314	42107.83
307.38	42159.81
307.446	42209.16
307.512	42212.07
307.578	42266.91
307.644	42284.27
307.709	42336.3
307.775	42371.99
307.841	42398.14
307.907	42435.05
307.973	42409.52
308.039	42446.62
308.104	42509.88
308.17	42545.07
308.236	42536.47
308.302	42585.08
308.368	42581.53
308.433	42614.7
308.499	42643.28
308.565	42641.63
308.631	42687.97
308.696	42621.55
308.762	42611.63
308.828	42644.11
308.894	42633.51
308.959	42611.78
309.025	42631.91
309.091	42660.02
309.156	42659.1
309.222	42707.83
309.288	42717.65
309.354	42684.88
309.419	42710.51
309.485	42702
309.551	42742.75
309.616	42749.22
309.682	42781.26
309.748	42818.7
309.813	42844.67
309.879	42854.69
309.945	42863
310.01	42884.74
310.076	42954.23
310.141	42971.05
310.207	42959.82
310.273	43010.05
310.338	43053.96
310.404	43047.63
310.469	43034.11
310.535	43050.75
310.601	43006.98
310.666	43054.64
310.732	43133.38
310.797	43133.62
310.863	43143
310.928	43158.91
310.994	43204.68
311.059	43222.33
311.125	43253.65
311.191	43312.61
311.256	43322.63
311.322	43381.38
311.387	43362.66
311.453	44273.23
311.518	44298.91
311.584	44330.14
311.649	44386.07
311.715	44394.24
311.78	44435.19
311.846	44450.81
311.911	44507.82
311.976	44565.45
312.042	44550.32
312.107	44529.41
312.173	44541.13
312.238	44563.01
312.304	44597.65
312.369	44601.01
312.434	44618.03
312.5	44631.26
312.565	44570.89
312.631	44621.67
312.696	44622.01
312.761	44669.1
312.827	43786.15
312.892	43888.83
312.958	43904.49
313.023	43919.57
313.088	43946.76
313.154	43930.96
313.219	43934.65
313.284	43935.53
313.35	43965.88
313.415	43967.34
313.48	43989.67
313.546	44032.09
313.611	44093.34
313.676	44096.02
313.741	44105.8
313.807	44169.3
313.872	44216.98
313.937	44273.6
314.003	44334.82
314.068	44369.7
314.133	44415.19
314.198	44427.79
314.264	44381.41
314.329	44394.59
314.394	44418.44
314.459	44452.73
314.525	44544.98
314.59	44571.15
314.655	44560.83
314.72	44611.64
314.785	44651.78
314.851	44677.42
314.916	44650.22
314.981	44619.66
315.046	44613.04
315.111	44601.76
315.176	44582.05
315.242	44616.46
315.307	44644.19
315.372	44611.63
315.437	44612.41
315.502	44605.7
315.567	44670.76
315.632	44665.31
315.698	44699.77
315.763	44711.2
315.828	44707.41
315.893	44702.4
315.958	44725.02
316.023	44723.61
316.088	44671.64
316.153	44622.94
316.218	44613.21
316.283	44576.19
316.348	44541.7
316.413	44551.97
316.479	44522.93
316.544	44420.15
316.609	44312.52
316.674	44190.14
316.739	44064.21
316.804	43964.11
316.869	43853.89
316.934	43709.45
316.999	43592.13
317.064	43403.61
317.129	43245.44
317.194	43103.04
317.259	42935.39
317.324	42733.31
317.389	42561.76
317.454	42402.02
317.518	42260.88
317.583	42137.95
317.648	42025.49
317.713	41870.42
317.778	41637.63
317.843	41494.8
317.908	41320.86
317.973	41152.04
318.038	41009.1
318.103	40851.26
318.168	40697.73
318.233	40540.46
318.297	40324.65
318.362	40149.71
318.427	39972.63
318.492	39832.63
318.557	39623.78
318.622	39492.19
318.687	39356.91
318.751	39147.39
318.816	38986.64
318.881	38808.42
318.946	38566.86
319.011	38352.57
319.075	38150.55
319.14	37958.37
319.205	37746.45
319.27	37572.41
319.335	37350.64
319.399	37145.9
319.464	36975.66
319.529	36722.83
319.594	36517.73
319.658	36348.22
319.723	36119.45
319.788	35951.86
319.853	35698
319.917	35516.23
319.982	35237.38
320.047	35026.45
320.112	34870.68
320.176	34610.61
320.241	34399.54
320.306	34216.18
320.37	33984.19
320.435	33790.56
320.5	33612.7
320.564	33390.85
320.629	33170.07
320.694	32974.35
320.758	32742.26
320.823	32498.62
320.888	32321.43
320.952	32056.93
321.017	31816.28
321.082	31597.86
321.146	31381.97
321.211	31165.36
321.275	30940.91
321.34	30709.84
321.405	30469.41
321.469	30219.92
321.534	29990.05
321.598	29746.33
321.663	29544.06
321.727	29344.79
321.792	29096.96
321.857	28848.58
321.921	28632.18
321.986	28388.26
322.05	28106.68
322.115	27893.85
322.179	27658.42
322.244	27372.44
322.308	27163.49
322.373	26918.44
322.437	26687.11
322.502	26495.66
322.566	26248.29
322.631	26029.43
322.695	25784.68
322.76	25533.13
322.824	25309.63
322.889	25062.59
322.953	24798.97
323.018	24469.21
323.082	24152.42
323.146	23881.3
323.211	23607.82
323.275	23342.83
323.34	23081.33
323.404	22854.1
323.468	22586.52
323.533	22330.41
323.597	22065
323.662	21789.82
323.726	21563.06
323.79	21299.09
323.855	20957.08
323.919	20689.52
323.983	20415.16
324.048	20040.38
324.112	20174.67
324.177	19374.19
324.241	18317.68
324.305	17279.69
324.37	16261.9
324.434	15274.29
324.498	14990.8
324.562	14678.81
324.627	14326.69
324.691	13987.27
324.755	13600.67
324.82	13159.29
324.884	12690.49
324.948	12228.34
325.012	11655.19
325.077	10941.86
