Data from 20250701_urea_2M_exp3_MAYP1162681_16-09-48-779.txt Node
Date: Tue Jul 01 16:09:48 BST 2025
User: adleo
Spectrometer: MAYP116268
Trigger mode: 0
Integration Time (sec): 4.000000E0
Scans to average: 1
Electric dark correction enabled: true
Nonlinearity correction enabled: true
Boxcar width: 10
XAxis mode: Wavelengths
Number of Pixels in Spectrum: 2068
>>>>>Begin Spectral Data<<<<<
179.565	4155.49
179.642	4365.64
179.718	4530.66
179.795	4679.24
179.871	4811.64
179.948	4888.67
180.024	4971.94
180.101	5063.32
180.177	5123.54
180.254	5213.13
180.33	5299.38
180.407	5606.26
180.483	5929.4
180.56	6254.12
180.636	6550.82
180.712	6511.62
180.789	6549.94
180.865	6595.92
180.942	6635.38
181.018	6677.16
181.095	6726.76
181.171	6740.64
181.248	6746.93
181.324	6808.44
181.4	6842.5
181.477	6881.66
181.553	6924.53
181.63	7003.53
181.706	7061.78
181.782	7087.17
181.859	7085.35
181.935	7110.68
182.011	7100.59
182.088	7161.19
182.164	7239.66
182.24	7295.52
182.317	7328.81
182.393	7318.68
182.469	7368.13
182.546	7415.24
182.622	7429.22
182.698	7412.49
182.775	7458.97
182.851	7511.99
182.927	7483.58
183.003	7466.8
183.08	7439.6
183.156	7479.45
183.232	7470.22
183.308	7425.95
183.385	7463.48
183.461	7527.23
183.537	7524.97
183.613	7568.24
183.69	7538.23
183.766	7493.07
183.842	7522.02
183.918	7541.77
183.995	7591.81
184.071	7606.63
184.147	7583.74
184.223	7545.69
184.299	7591.33
184.375	7547.78
184.452	7566.49
184.528	7708.56
184.604	7747.44
184.68	7794.6
184.756	7823.12
184.832	7829.13
184.908	7853.74
184.985	7847.01
185.061	7787.58
185.137	7823.08
185.213	7778.85
185.289	7780.96
185.365	7757.41
185.441	7751.54
185.517	7804.46
185.593	7792.59
185.669	7782.68
185.745	7819.32
185.822	7880.93
185.898	7853.9
185.974	7890.77
186.05	7866.86
186.126	7781.92
186.202	7752.98
186.278	7740.86
186.354	7697.67
186.43	7726.25
186.506	7715.72
186.582	7717.98
186.658	7742.69
186.734	7668.8
186.81	7680.48
186.886	7692.93
186.962	7735.71
187.038	7717.73
187.114	7686.93
187.19	7713.72
187.266	7677.62
187.341	7684.31
187.417	7655.99
187.493	7653.44
187.569	7664.5
187.645	7648.87
187.721	7604.53
187.797	7637.32
187.873	7647.75
187.949	7631.84
188.025	7612.02
188.101	7628.84
188.176	7644.52
188.252	7630.48
188.328	7663.78
188.404	7666.23
188.48	7646.43
188.556	7621.91
188.632	7620.46
188.707	7625.13
188.783	7613.39
188.859	7596.39
188.935	7552.48
189.011	7578.34
189.086	7550.51
189.162	7518.78
189.238	7504.41
189.314	7496.62
189.39	7473.54
189.465	7450.08
189.541	7506.44
189.617	7447.98
189.693	7421.36
189.768	7430.69
189.844	7521.07
189.92	7483.69
189.996	7513.65
190.071	7559.86
190.147	7559.28
190.223	7598.04
190.298	7567.98
190.374	7523.13
190.45	7566.86
190.526	7599.61
190.601	7583.02
190.677	7595.75
190.753	7702.09
190.828	7716.8
190.904	7767.29
190.98	7824
191.055	7861.17
191.131	7833.95
191.207	7906.5
191.282	7943.22
191.358	7915.14
191.433	7856.72
191.509	7907.66
191.585	7892.41
191.66	7886.83
191.736	7913.38
191.811	7876.39
191.887	7937.35
191.963	8021.28
192.038	8039.6
192.114	8040.99
192.189	8057.82
192.265	8045.9
192.34	7965.77
192.416	7961.64
192.491	7954.95
192.567	7964.96
192.642	7981.61
192.718	7985.51
192.793	7942.51
192.869	7926.45
192.944	7933.61
193.02	7966.18
193.095	7976.91
193.171	7998.26
193.246	8002.64
193.322	7993.07
193.397	7995.09
193.473	7939.9
193.548	7871.98
193.624	7895.36
193.699	7889.39
193.775	7946.46
193.85	7945.36
193.925	7976.15
194.001	7971.15
194.076	7938.49
194.152	7895.86
194.227	7865.46
194.302	7826.18
194.378	7845.32
194.453	7837.78
194.529	7880.68
194.604	7824.65
194.679	7804.79
194.755	7736.43
194.83	7778.73
194.905	7766.81
194.981	7800.28
195.056	7775.76
195.131	7802.07
195.207	7792.63
195.282	7760.47
195.357	7689.31
195.433	7752.3
195.508	7705.94
195.583	7741.52
195.659	7797.46
195.734	7817.72
195.809	7811.32
195.884	7845.35
195.96	7845.74
196.035	7898.44
196.11	7877.95
196.185	7918.1
196.261	7933.34
196.336	8056.95
196.411	8001.81
196.486	8028.45
196.561	8006.23
196.637	8040.41
196.712	8100.76
196.787	8110.43
196.862	8168.58
196.937	8206.24
197.013	8223.18
197.088	8259.92
197.163	8337.13
197.238	8396.98
197.313	8409.01
197.388	8459.29
197.464	8561.52
197.539	8599.82
197.614	8577.06
197.689	8629.81
197.764	8692.29
197.839	8770.3
197.914	8739.83
197.989	8828.1
198.065	8873.29
198.14	9058.74
198.215	9160.32
198.29	9201.21
198.365	9250.99
198.44	9285.88
198.515	9386.43
198.59	9447.92
198.665	9550.72
198.74	9580.1
198.815	9581.64
198.89	9658.25
198.965	9768.7
199.04	9762.3
199.115	9820.46
199.19	9974.21
199.265	9980.95
199.34	10021.71
199.415	10138.21
199.49	10215.79
199.565	10249.12
199.64	10338.28
199.715	10325.56
199.79	10337.32
199.865	10363.28
199.94	10351.49
200.015	10474.73
200.09	10492.22
200.165	10515.01
200.24	10538.96
200.315	10679.88
200.39	10740.02
200.464	10760.06
200.539	10764.25
200.614	10824.33
200.689	10910.34
200.764	10936.08
200.839	11001.35
200.914	11016.04
200.989	10980.09
201.063	11031.65
201.138	10966.68
201.213	10964.8
201.288	10890.98
201.363	10912.71
201.438	10907.6
201.512	10976.63
201.587	10909.02
201.662	10927.43
201.737	10961.84
201.812	10986.75
201.886	10864.86
201.961	10898.64
202.036	10854.51
202.111	10845.02
202.186	10735.98
202.26	10671.93
202.335	10590.64
202.41	10571.47
202.485	10508.41
202.559	10432
202.634	10336.9
202.709	10371.71
202.784	10302.83
202.858	10303.36
202.933	10236.78
203.008	10210.77
203.082	10131.86
203.157	10121.65
203.232	9960.2
203.306	9881.76
203.381	9765.13
203.456	9684.7
203.53	9597.57
203.605	9528.78
203.68	9441.73
203.754	9416.33
203.829	9357.52
203.904	9285.88
203.978	9236.94
204.053	9254.71
204.127	9208.31
204.202	9202.58
204.277	9135.08
204.351	9112.02
204.426	9087.31
204.5	9056.88
204.575	8928.83
204.65	8969.09
204.724	8938.79
204.799	8971.22
204.873	8958.84
204.948	8951.81
205.022	8901.33
205.097	8872.63
205.171	8918.98
205.246	8954.61
205.32	8953.89
205.395	8952.35
205.469	8919.78
205.544	8942.9
205.618	8876.37
205.693	8922.2
205.767	8873.3
205.842	8956.35
205.916	8932.72
205.991	8892.91
206.065	8914.19
206.14	8970.36
206.214	8950.56
206.289	8919.26
206.363	8959.41
206.438	8968.99
206.512	8997.83
206.586	9071.28
206.661	9098.16
206.735	9020.59
206.81	9015.92
206.884	9069.01
206.958	9031.37
207.033	9095.03
207.107	9121.57
207.181	9238.98
207.256	9213.51
207.33	9284.22
207.405	9325.9
207.479	9401.45
207.553	9429.8
207.628	9367
207.702	9411.52
207.776	9386.24
207.851	9404.63
207.925	9461.18
207.999	9454.06
208.073	9443.17
208.148	9452.04
208.222	9406.38
208.296	9517.08
208.371	9573.88
208.445	9617.32
208.519	9719.93
208.593	9760.19
208.668	9744.2
208.742	9749.94
208.816	9759.9
208.89	9813.57
208.965	9804.27
209.039	9832.69
209.113	9902.2
209.187	9983.97
209.261	9972.99
209.336	10045.48
209.41	10120.49
209.484	10123.23
209.558	10205.13
209.632	10252.96
209.707	10292.7
209.781	10377.14
209.855	10441.9
209.929	10507.64
210.003	10525.51
210.077	10518.67
210.151	10695.07
210.226	10820.61
210.3	10923.42
210.374	11010.37
210.448	11028.06
210.522	11067.67
210.596	11103.38
210.67	11133.4
210.744	11302.84
210.818	11423.53
210.892	11502.85
210.966	11488.16
211.041	11547.53
211.115	11533.07
211.189	11620.25
211.263	11682.23
211.337	11702.81
211.411	11761.46
211.485	11739.05
211.559	11784.64
211.633	11795.58
211.707	11684.71
211.781	11710.4
211.855	11578.01
211.929	11545.58
212.003	11470.47
212.077	11506.57
212.151	11547.3
212.225	11575.59
212.299	11535.34
212.373	11488.01
212.447	11466.23
212.52	11568.59
212.594	11572.26
212.668	11607.63
212.742	11554.57
212.816	11533.79
212.89	11509.99
212.964	11487.09
213.038	11493.41
213.112	11531
213.186	11577.79
213.26	11483.8
213.333	11312.44
213.407	11322.36
213.481	11323.09
213.555	11355.36
213.629	11299.59
213.703	11231.69
213.777	11222.53
213.85	11141.03
213.924	11251.6
213.998	11240.66
214.072	11200.41
214.146	11143.15
214.219	11122.04
214.293	11094.72
214.367	11084.26
214.441	11111.49
214.515	11058.48
214.588	10961.95
214.662	10817.4
214.736	10728.46
214.81	10747.48
214.883	10768.09
214.957	10712.36
215.031	10653.03
215.105	10557.45
215.178	10488.36
215.252	10440.95
215.326	10323.93
215.4	10230.5
215.473	10028.18
215.547	9933.22
215.621	9854.72
215.694	9841.42
215.768	9731.45
215.842	9661.72
215.915	9579.48
215.989	9447.69
216.063	9384.05
216.136	9354.82
216.21	9323.38
216.284	9328.59
216.357	9297.57
216.431	9243.93
216.504	9240.95
216.578	9297.3
216.652	9307.55
216.725	9283.23
216.799	9289.25
216.873	9274.71
216.946	9280.82
217.02	9239.59
217.093	9210.02
217.167	9105.31
217.24	9020.61
217.314	8980.14
217.387	8926.49
217.461	8878.79
217.535	8903.82
217.608	8832.15
217.682	8804.13
217.755	8827.14
217.829	8764.79
217.902	8747.9
217.976	8723.79
218.049	8677
218.123	8593.74
218.196	8594.56
218.27	8551.48
218.343	8477.53
218.417	8472.24
218.49	8449.76
218.563	8501.78
218.637	8512.18
218.71	8591.17
218.784	8613.65
218.857	8651.66
218.931	8673.69
219.004	8684.66
219.077	8708.78
219.151	8738.04
219.224	8728.41
219.298	8719.46
219.371	8772.75
219.444	8727.81
219.518	8744.9
219.591	8759.24
219.665	8870.49
219.738	8882.81
219.811	8867.17
219.885	8917.14
219.958	8952.19
220.031	8954.69
220.105	8973.61
220.178	8975.16
220.251	8947.23
220.325	8982.77
220.398	9005.78
220.471	9031.14
220.544	9068.98
220.618	9040.33
220.691	9068.78
220.764	9090.49
220.838	9121.2
220.911	9098
220.984	9199.51
221.057	9240.24
221.131	9267.68
221.204	9168.65
221.277	9247.1
221.35	9382.07
221.424	9379.37
221.497	9385.54
221.57	9414.03
221.643	9454.01
221.716	9505.88
221.79	9511.13
221.863	9521.34
221.936	9527.55
222.009	9547.19
222.082	9586.88
222.155	9601.18
222.229	9668.42
222.302	9697.99
222.375	9700.78
222.448	9747.79
222.521	9745.76
222.594	9744.71
222.667	9712.6
222.74	9771.73
222.814	9761.18
222.887	9741.09
222.96	9793.26
223.033	9844.95
223.106	9868.2
223.179	9900.82
223.252	9913.93
223.325	9951.49
223.398	9969.99
223.471	10004.43
223.544	10026.72
223.617	10035.78
223.69	10061.11
223.763	10024.88
223.837	10052.2
223.91	10089.1
223.983	10042
224.056	10008.96
224.129	10042.77
224.202	10110.08
224.275	10099.15
224.348	10065.19
224.42	10028.24
224.493	9966.97
224.566	9939.75
224.639	9972.84
224.712	9940.75
224.785	9930.54
224.858	9917.58
224.931	9896.19
225.004	9853.28
225.077	9854.53
225.15	9757.17
225.223	9756.68
225.296	9849.69
225.369	9790.83
225.442	9757.26
225.514	9779.79
225.587	9799.01
225.66	9802.28
225.733	9801.17
225.806	9814.42
225.879	9812.21
225.952	9785.82
226.025	9837.93
226.097	9896.43
226.17	9884.24
226.243	9814.9
226.316	9809.45
226.389	9823.71
226.461	9846.06
226.534	9871.83
226.607	9861.23
226.68	9953.44
226.753	9942.41
226.825	9845.89
226.898	9910
226.971	9914.33
227.044	9937.6
227.117	9952.77
227.189	9970.11
227.262	10013.14
227.335	10030.72
227.407	10026.77
227.48	10062.75
227.553	10078.79
227.626	10057.97
227.698	10059.66
227.771	10109.25
227.844	10083.29
227.916	10098.75
227.989	10060.6
228.062	10058.82
228.134	10157.15
228.207	10168.19
228.28	10166.36
228.352	10179.36
228.425	10186.45
228.498	10243.58
228.57	10222.54
228.643	10288.88
228.716	10295.63
228.788	10277.8
228.861	10278.96
228.934	10350.83
229.006	10360.56
229.079	10364.03
229.151	10356.9
229.224	10332.29
229.296	10359.22
229.369	10472.55
229.442	10530.19
229.514	10514.05
229.587	10566.52
229.659	10484.46
229.732	10494.67
229.804	10548.05
229.877	10643.66
229.949	10678.5
230.022	10732.29
230.094	10737.68
230.167	10729.88
230.239	10676.5
230.312	10667.97
230.384	10742.86
230.457	10739.06
230.529	10747.49
230.602	10754.67
230.674	10769.46
230.747	10811.85
230.819	10851.56
230.892	10728.11
230.964	10728.11
231.037	10761.1
231.109	10751.03
231.181	10800.84
231.254	10759.27
231.326	10742.5
231.399	10710.83
231.471	10681.15
231.544	10597.05
231.616	10646
231.688	10648.5
231.761	10652.93
231.833	10650.04
231.905	10554.87
231.978	10557.42
232.05	10547.69
232.122	10543.79
232.195	10515.36
232.267	10560.94
232.339	10535.4
232.412	10617.06
232.484	10591.04
232.556	10560.45
232.629	10639.59
232.701	10660.17
232.773	10678.67
232.846	10673.51
232.918	10692.31
232.99	10720.31
233.062	10769.7
233.135	10789.07
233.207	10749.41
233.279	10797.64
233.351	10836.62
233.424	10850.64
233.496	10823.51
233.568	10916.37
233.64	10890.35
233.713	10908.37
233.785	10900.42
233.857	10917.96
233.929	10861.25
234.001	10928.78
234.074	11011.97
234.146	10932.89
234.218	10927.68
234.29	10930.81
234.362	10917.76
234.434	10864.55
234.507	10822.68
234.579	10764.85
234.651	10743.51
234.723	10785.43
234.795	10804.71
234.867	10793.14
234.939	10852.32
235.012	10882.72
235.084	10888.12
235.156	10930.81
235.228	10918.76
235.3	10898.72
235.372	10917.22
235.444	10980.2
235.516	10900.05
235.588	10908.05
235.66	10932.62
235.732	10911.33
235.804	11127.46
235.876	11179.64
235.948	11248.51
236.02	11270.48
236.092	11291.87
236.164	11311.34
236.236	11311.97
236.308	11311.34
236.38	11349.65
236.452	11333.8
236.524	11347.58
236.596	11416.18
236.668	11448.95
236.74	11474.63
236.812	11518.63
236.884	11563.03
236.956	11583.94
237.028	11585.34
237.1	11572.52
237.172	11651.14
237.244	11730.9
237.316	11611.5
237.388	11593.28
237.46	11571.11
237.532	11643.84
237.604	11640.56
237.675	11720.09
237.747	11768.48
237.819	11753.59
237.891	11764.87
237.963	11764.87
238.035	11773.02
238.107	11659.98
238.178	11741.3
238.25	11750.85
238.322	11853.91
238.394	11796.93
238.466	11798.72
238.538	11848.31
238.609	11895.2
238.681	11835.1
238.753	11814.51
238.825	11834.57
238.897	11881.03
238.968	11976.66
239.04	11954.25
239.112	12082.12
239.184	12045.34
239.255	12050.79
239.327	12100.52
239.399	12124.87
239.471	12178.42
239.542	12216.83
239.614	12295.93
239.686	12202.08
239.758	12262.04
239.829	12222.94
239.901	12308.84
239.973	12333.66
240.044	12371.55
240.116	12387.02
240.188	12417.58
240.259	12443.61
240.331	12441.54
240.403	12486.41
240.474	12443.03
240.546	12442.54
240.618	12375.97
240.689	12375.49
240.761	12405.33
240.833	12480.92
240.904	12486.75
240.976	12486.32
241.048	12509.89
241.119	12553.51
241.191	12606.05
241.262	12687.76
241.334	12701.84
241.405	12698.66
241.477	12700.68
241.549	12716.01
241.62	12742.67
241.692	12790.63
241.763	12860.53
241.835	12892.44
241.906	12912.02
241.978	12875.04
242.049	12951.11
242.121	13024.77
242.192	13118.19
242.264	13084.16
242.335	13038.12
242.407	13087.63
242.478	13096.5
242.55	13126.1
242.621	13118.48
242.693	13125.85
242.764	13117.51
242.836	13121.23
242.907	13160.8
242.979	13200.77
243.05	13231.28
243.122	13270.81
243.193	13277.56
243.264	13198.69
243.336	13196.91
243.407	13240.2
243.479	13337.77
243.55	13361.92
243.622	13388.05
243.693	13376.82
243.764	13449.46
243.836	13424.83
243.907	13415.09
243.978	13425.36
244.05	13459.59
244.121	13402.37
244.192	13452.12
244.264	13401.6
244.335	13416.25
244.407	13370.65
244.478	13397.74
244.549	13387.62
244.62	13338.69
244.692	13336.28
244.763	13392.05
244.834	13385.2
244.906	13359.37
244.977	13383.47
245.048	13437.94
245.119	13408.92
245.191	13387.9
245.262	13326.78
245.333	13420
245.405	13442.28
245.476	13489.13
245.547	13506.2
245.618	13579.47
245.689	13598.18
245.761	13638.86
245.832	13658.1
245.903	13706.11
245.974	13734.7
246.045	13756.92
246.117	13849.76
246.188	13838.97
246.259	13828.07
246.33	13849.57
246.401	13873.34
246.473	13842.44
246.544	13843.02
246.615	13915.37
246.686	13929.45
246.757	14017.67
246.828	13997.47
246.899	14084.57
246.97	14048.08
247.042	14041.33
247.113	14093.49
247.184	14190.81
247.255	14196.88
247.326	14229.08
247.397	14240.7
247.468	14259.36
247.539	14277.82
247.61	14233.52
247.681	14285.92
247.752	14356.88
247.823	14340.92
247.894	14357.94
247.965	14329.4
248.037	14311.08
248.108	14253.67
248.179	14268.66
248.25	14263.07
248.321	14295.13
248.392	14247.31
248.463	14341.7
248.534	14340.49
248.605	14360.3
248.675	14339.87
248.746	14364.55
248.817	14381.03
248.888	14406.63
248.959	14347.53
249.03	14378.48
249.101	14391.35
249.172	14382.63
249.243	14297.59
249.314	14365.61
249.385	14372.16
249.456	14408.56
249.527	14399.59
249.598	14436.33
249.669	14431.8
249.739	14443.03
249.81	14459.75
249.881	14411.21
249.952	14404.17
250.023	14406.15
250.094	14353.03
250.165	14317.84
250.235	14319.19
250.306	14323.72
250.377	14300.68
250.448	14326.62
250.519	14254.98
250.59	14329.36
250.66	14331.96
250.731	14417.1
250.802	14418.4
250.873	14447.37
250.944	14474.31
251.014	14473.21
251.085	14574.09
251.156	14610.29
251.227	14670.31
251.297	14734.46
251.368	14803.01
251.439	14852.66
251.51	14911.03
251.58	14887.51
251.651	14885.53
251.722	14940.92
251.792	14890.25
251.863	14888.66
251.934	14969.89
252.005	15104.76
252.075	15116.28
252.146	15169.21
252.217	15222.47
252.287	15278.48
252.358	15284.07
252.429	15369.82
252.499	15371.37
252.57	15380.14
252.641	15435.09
252.711	15442.37
252.782	15388.04
252.852	15475.24
252.923	15478.42
252.994	15497.94
253.064	15571.93
253.135	15552.7
253.205	15533.23
253.276	15621.97
253.347	15694.8
253.417	15669.21
253.488	15644.87
253.558	15629.88
253.629	15631.13
253.699	15650.02
253.77	15679.57
253.841	15674.75
253.911	15679.67
253.982	15700.01
254.052	15731.29
254.123	15739.24
254.193	15756.88
254.264	15920.8
254.334	15883.35
254.405	15850.43
254.475	15817.75
254.546	15822.71
254.616	15898.92
254.687	15934.3
254.757	15960.23
254.827	15972.61
254.898	16004.57
254.968	16013.73
255.039	15994.88
255.109	16039.71
255.18	16006.21
255.25	15922.78
255.321	15968.52
255.391	15928.47
255.461	16017.64
255.532	15937.29
255.602	15928.71
255.673	15860.6
255.743	15815.26
255.813	15733.89
255.884	15786.28
255.954	15827.5
256.024	15897.67
256.095	15897.77
256.165	15868.51
256.235	15896.08
256.306	15879.21
256.376	15931.07
256.446	15983.89
256.517	16032.67
256.587	16084.43
256.657	16116.15
256.728	16152.45
256.798	16161.41
256.868	16165.12
256.938	16135.87
257.009	16184.79
257.079	16230.82
257.149	16343.94
257.219	16279.93
257.29	16338.65
257.36	16285.1
257.43	16337.97
257.5	16274.63
257.571	16268.22
257.641	16311.8
257.711	16272.61
257.781	16314.16
257.852	16336.57
257.922	16270.01
257.992	16276.95
258.062	16266.59
258.132	16318.01
258.202	16325.39
258.273	16346.79
258.343	16430.21
258.413	16420.09
258.483	16432.86
258.553	16404.62
258.623	16385.92
258.693	16426.84
258.764	16496.1
258.834	16572.5
258.904	16590.38
258.974	16581.84
259.044	16594.95
259.114	16627.92
259.184	16661.32
259.254	16671.34
259.324	16613.08
259.394	16671.11
259.464	16754.96
259.535	16769.28
259.605	16762.1
259.675	16761.33
259.745	16800.94
259.815	16778.39
259.885	16782.44
259.955	16909.85
260.025	16904.5
260.095	16920.45
260.165	16960.31
260.235	17025.37
260.305	17014.29
260.375	16977.32
260.445	17086.77
260.515	17162.63
260.585	17208.85
260.655	17226.05
260.725	17272.8
260.795	17315.45
260.865	17396.42
260.934	17361.19
261.004	17394.92
261.074	17397.09
261.144	17462.69
261.214	17496.28
261.284	17501.39
261.354	17559.17
261.424	17504.77
261.494	17581.2
261.564	17588.67
261.634	17615.66
261.703	17552.19
261.773	17581.06
261.843	17616.72
261.913	17598.41
261.983	17538.56
262.053	17561.59
262.123	17555.62
262.192	17512.39
262.262	17558.41
262.332	17496.87
262.402	17537.11
262.472	17547.66
262.541	17488.19
262.611	17542.16
262.681	17523.56
262.751	17564.28
262.821	17562.4
262.89	17528.28
262.96	17553.54
263.03	17635.51
263.1	17651.94
263.169	17668.71
263.239	17702.45
263.309	17777.19
263.379	17807.31
263.448	17829.19
263.518	17852.03
263.588	17866.25
263.657	17950.93
263.727	17994.15
263.797	18019.36
263.867	18005.82
263.936	17970.59
264.006	18041.72
264.076	18031.94
264.145	18028.71
264.215	18013.29
264.285	18051.31
264.354	18002.88
264.424	17987.84
264.494	17930.88
264.563	17927.65
264.633	18018.01
264.702	18042.2
264.772	17976.62
264.842	17976.86
264.911	18008.67
264.981	17972.67
265.05	17991.65
265.12	17975.66
265.19	17992.23
265.259	18033.68
265.329	18087.7
265.398	18114.44
265.468	18217.43
265.537	18207.98
265.607	18251.69
265.676	18310.44
265.746	18339.35
265.815	18413.13
265.885	18424.36
265.955	18417.13
266.024	18414.92
266.094	18343.5
266.163	18410.53
266.232	18497.37
266.302	18513.46
266.371	18548.26
266.441	18564.83
266.51	18619.72
266.58	18633.65
266.649	18615.1
266.719	18668.25
266.788	18694.85
266.858	18773.26
266.927	18701.55
266.996	18740.25
267.066	18765.11
267.135	18720.15
267.205	18766.61
267.274	18780.24
267.343	18845.49
267.413	18863.61
267.482	18933.68
267.552	19005.53
267.621	18951.61
267.69	18903.76
267.76	18938.45
267.829	18960.04
267.898	18982.06
267.968	18959.8
268.037	19007.08
268.106	19053.96
268.176	19022.93
268.245	19028.62
268.314	19019.32
268.384	19082.97
268.453	19094.83
268.522	19117.38
268.592	19192.51
268.661	19181.86
268.73	19220.6
268.799	19202.97
268.869	19286.82
268.938	19242.82
269.007	19231.64
269.076	19258.19
269.146	19314.53
269.215	19332.55
269.284	19426.52
269.353	19419.34
269.422	19435.1
269.492	19422.57
269.561	19341.85
269.63	19380.12
269.699	19375.01
269.768	19392.41
269.838	19413.51
269.907	19469.41
269.976	19446.28
270.045	19387.06
270.114	19416.31
270.183	19433.42
270.253	19466.33
270.322	19422.33
270.391	19443.63
270.46	19511.92
270.529	19559.72
270.598	19598.86
270.667	19615.82
270.736	19572.49
270.806	19617.84
270.875	19676.15
270.944	19691.04
271.013	19829.3
271.082	19858.6
271.151	19909.44
271.22	19865.35
271.289	19877.45
271.358	19886.17
271.427	19929.49
271.496	19964.57
271.565	19971.03
271.634	19989.15
271.703	20046.98
271.772	20118.74
271.841	20138.5
271.91	20108.18
271.979	20140.09
272.048	20105.68
272.117	20147.12
272.186	20154.83
272.255	20217.78
272.324	20268.23
272.393	20306.26
272.462	20294.5
272.531	20318.5
272.6	20320.04
272.669	20402.98
272.738	20421.96
272.807	20451.89
272.876	20428.38
272.945	20579.9
273.013	20645.16
273.082	20717.79
273.151	20695.72
273.22	20731.04
273.289	20754.71
273.358	20849.07
273.427	20854.18
273.496	20921.12
273.564	20975.87
273.633	21028.94
273.702	20999.83
273.771	21011.78
273.84	21046.82
273.909	21092.17
273.977	21126.54
274.046	21148.42
274.115	21213.15
274.184	21196.43
274.253	21214.26
274.322	21300.53
274.39	21234.83
274.459	21227.36
274.528	21170.15
274.597	21200.37
274.665	21226.78
274.734	21307.36
274.803	21310.79
274.872	21334.4
274.94	21335.32
275.009	21582.08
275.078	21584.83
275.147	21626.47
275.215	21647.39
275.284	21719.35
275.353	21727.98
275.421	21701.86
275.49	21809.31
275.559	21811.82
275.627	21847.19
275.696	21869.37
275.765	21915.21
275.833	21923.16
275.902	21966.83
275.971	22051.18
276.039	22140.46
276.108	22201.97
276.177	22239.62
276.245	22246.9
276.314	22270.76
276.383	22324.84
276.451	22130.92
276.52	22180.14
276.588	22276.85
276.657	22345.21
276.725	22351.28
276.794	22399.01
276.863	22486.99
276.931	22446.63
277	22520.74
277.068	22599.79
277.137	22709.63
277.205	22749.35
277.274	22873.4
277.342	22954.02
277.411	22929.63
277.48	22930.74
277.548	22937.2
277.617	22973.17
277.685	23000.31
277.754	23075.72
277.822	23092.11
277.89	23186.54
277.959	23212.68
278.027	23188.37
278.096	23184.52
278.164	23327
278.233	23345.76
278.301	23351.02
278.37	23414.71
278.438	23412.16
278.507	23463.99
278.575	23425.65
278.643	23450
278.712	23418.81
278.78	23409.3
278.849	23499.46
278.917	23584.93
278.985	23617.43
279.054	23679.61
279.122	23766.46
279.191	23804.37
279.259	23838.65
279.327	23794.95
279.396	23892.52
279.464	23912.53
279.532	23990.09
279.601	24012.25
279.669	24039.64
279.737	24127.91
279.806	24175.71
279.874	24257.05
279.942	24295.87
280.011	24319.79
280.079	24387.86
280.147	24486.21
280.215	24543.13
280.284	24577.95
280.352	24575.49
280.42	24647.28
280.488	24649.55
280.557	24670.58
280.625	24729.31
280.693	24780
280.761	24840.74
280.83	24827.85
280.898	24925.69
280.966	24908.27
281.034	24841.33
281.102	24849.82
281.171	24871.1
281.239	24947.22
281.307	24953.01
281.375	24949.1
281.443	25082.68
281.512	25115.98
281.58	25196.11
281.648	25191.23
281.716	25223.46
281.784	25249.95
281.852	25262.02
281.92	25307.96
281.989	25386.49
282.057	25357.54
282.125	25556.25
282.193	25596.64
282.261	25653.4
282.329	25683.66
282.397	25741.86
282.465	25807.34
282.533	25896.42
282.601	25911.43
282.67	25882.27
282.738	25897.47
282.806	25998.05
282.874	25985.79
282.942	26046.09
283.01	26062.37
283.078	26131.49
283.146	26164.35
283.214	26267.87
283.282	26326.24
283.35	26422.58
283.418	26447.84
283.486	26516.09
283.554	26405.31
283.622	26444.52
283.69	26484.35
283.758	26508.5
283.826	26571.89
283.894	26655.34
283.962	26761.66
284.03	26852.68
284.098	26895.8
284.165	26936.83
284.233	26982.72
284.301	27027.97
284.369	27041.15
284.437	27063.81
284.505	27094.52
284.573	27201.98
284.641	27197.97
284.709	27279.77
284.777	27255.51
284.845	27322.92
284.912	27390.25
284.98	27462.27
285.048	27502.17
285.116	27562.03
285.184	27663.92
285.252	27703.25
285.319	27684.5
285.387	27712.34
285.455	27710.8
285.523	27792.55
285.591	27836.45
285.659	27890.67
285.726	27978.15
285.794	27975.54
285.862	28011.15
285.93	28063.38
285.997	28096.34
286.065	28120.93
286.133	28117.89
286.201	28160.07
286.269	28164.81
286.336	28176.74
286.404	28206.42
286.472	28283.27
286.539	28248.2
286.607	28227.65
286.675	28269.56
286.743	28337.94
286.81	28349.5
286.878	28436.17
286.946	28447.57
287.013	28490.58
287.081	28529.99
287.149	28515.58
287.216	28627.29
287.284	28661.18
287.352	28707.97
287.419	28741.81
287.487	28852.88
287.555	28923.82
287.622	28952.2
287.69	29008.44
287.758	29097.99
287.825	29124.77
287.893	29122.84
287.96	29197.55
288.028	29292.77
288.096	29367.84
288.163	29433.62
288.231	29453.01
288.298	29491.47
288.366	29582.16
288.433	29619.72
288.501	29632.15
288.569	29684.53
288.636	29705.91
288.704	29797.64
288.771	29861.06
288.839	29874.94
288.906	29888.39
288.974	29975.57
289.041	30017.35
289.109	30027.85
289.176	30104.85
289.244	30165.9
289.311	30254.01
289.379	30340.41
289.446	30389.87
289.514	30425.35
289.581	30456.03
289.649	30518.74
289.716	30575.32
289.783	30595.6
289.851	30708.54
289.918	30755.42
289.986	30841.29
290.053	30913.46
290.121	30944.93
290.188	31012.71
290.255	31161.19
290.323	31191.54
290.39	31209.99
290.458	31290.81
290.525	31388.11
290.592	31412.03
290.66	31483.25
290.727	31514.62
290.794	31604.6
290.862	31650.27
290.929	31703.63
290.996	31764.21
291.064	31845.03
291.131	31936.25
291.198	32043.64
291.266	32083.11
291.333	32129.44
291.4	32193.14
291.468	32301.88
291.535	32344.35
291.602	32393.96
291.669	32421.29
291.737	32482.41
291.804	32521.07
291.871	32624.7
291.938	32692.3
292.006	32840.25
292.073	32918.11
292.14	32999.9
292.207	33021.31
292.275	33071.37
292.342	33156.37
292.409	33294.33
292.476	33419.65
292.543	33416.16
292.611	33462.89
292.678	33587.67
292.745	33739.52
292.812	33817.04
292.879	33838.96
292.946	33891.44
293.014	33989.03
293.081	34060.75
293.148	34162.06
293.215	34271.1
293.282	34299.22
293.349	34379.33
293.416	34345.38
293.484	34442.08
293.551	34527.58
293.618	34640.95
293.685	34770.05
293.752	34805.36
293.819	34842.57
293.886	34836.99
293.953	34921.75
294.02	35001.45
294.087	35055.16
294.154	35074.17
294.221	35177.19
294.288	35236.9
294.356	35352.72
294.423	35417.69
294.49	35434.72
294.557	35523.5
294.624	35542.43
294.691	35659.35
294.758	35711.89
294.825	35795.19
294.892	35814.22
294.959	35867.25
295.026	35941.8
295.093	35974.12
295.16	36020.6
295.226	36071.22
295.293	36218.09
295.36	36303.98
295.427	36393.25
295.494	36483.89
295.561	36574.74
295.628	36703.34
295.695	36814.65
295.762	36876.87
295.829	36970.43
295.896	37082.88
295.963	37175.91
296.03	37269.59
296.096	37341.69
296.163	37437.87
296.23	37544.34
296.297	37634.63
296.364	37688.76
296.431	37756.89
296.498	37792.09
296.564	37941.33
296.631	38003.33
296.698	38003.14
296.765	38113.42
296.832	38123.03
296.899	38131.29
296.965	38232.89
297.032	38214.91
297.099	38321.78
297.166	38410.85
297.233	38449.76
297.299	38479.87
297.366	38528.35
297.433	38592.6
297.5	38685.24
297.566	38746.1
297.633	38800.17
297.7	38873.07
297.767	38935.77
297.833	39012.29
297.9	39088
297.967	39081.05
298.033	39173.06
298.1	39339.86
298.167	39370.47
298.234	39454.02
298.3	39551.57
298.367	39597.05
298.434	39672.36
298.5	39690.73
298.567	39719
298.634	39769
298.7	39890.55
298.767	39947.16
298.834	40036.76
298.9	40062.47
298.967	40089.97
299.033	40174.58
299.1	40280.42
299.167	40381.44
299.233	40409.91
299.3	40513.8
299.366	40623.56
299.433	40731.76
299.5	40678.59
299.566	40738.02
299.633	40847.47
299.699	40933.6
299.766	40960.33
299.832	41024.79
299.899	41106.74
299.965	41220.96
300.032	41253.23
300.099	41326.87
300.165	41401.73
300.232	41439.89
300.298	41500.89
300.365	41594.74
300.431	41654.64
300.498	41684.1
300.564	41757.46
300.631	41855.56
300.697	41959.56
300.763	42018.72
300.83	42049.74
300.896	42160.05
300.963	42251.64
301.029	42317.87
301.096	42390.28
301.162	42501.27
301.229	42543.82
301.295	42553.93
301.361	42615.54
301.428	42692.01
301.494	42693.42
301.561	42766.27
301.627	42843.73
301.693	42912.63
301.76	42993.4
301.826	43023.65
301.892	43115.57
301.959	43186.19
302.025	43233.61
302.092	43264.16
302.158	43336.86
302.224	43413.72
302.291	43436.63
302.357	43466.2
302.423	43490.42
302.49	43506.57
302.556	43597.98
302.622	43638.94
302.688	43728.58
302.755	43821.95
302.821	43902.01
302.887	43987.17
302.954	44034.21
303.02	44116.19
303.086	44183.18
303.152	44212.66
303.219	44244.86
303.285	44311.48
303.351	44380.83
303.417	44433.52
303.483	44453.71
303.55	44499.2
303.616	44544.85
303.682	44595
303.748	44639.08
303.815	44747.42
303.881	44833.46
303.947	44833.46
304.013	44908.73
304.079	44940.51
304.145	44918.61
304.212	44969.89
304.278	44997.19
304.344	45030.33
304.41	45032.77
304.476	45052.62
304.542	45091.26
304.608	45170.39
304.674	45158.46
304.741	45186.41
304.807	45251.69
304.873	45323.19
304.939	45415.98
305.005	45388.14
305.071	45430.86
305.137	45480.21
305.203	45428.61
305.269	45452.61
305.335	45529.49
305.401	45556.17
305.467	45587.56
305.533	45662.01
305.599	45723.16
305.666	45798.7
305.732	45841.21
305.798	45929.83
305.864	46058.75
305.93	46125.99
305.996	46164.46
306.062	46211.49
306.128	46244.56
306.194	46243.24
306.259	46269
306.325	46279.62
306.391	46365.51
306.457	46442.34
306.523	46496.1
306.589	46635.31
306.655	46656.64
306.721	46642.42
306.787	46646.07
306.853	46753.54
306.919	46738.69
306.985	46757.93
307.051	46775.31
307.117	46787.39
307.183	46799.91
307.248	46737.11
307.314	46786.61
307.38	46835.33
307.446	46907.48
307.512	46924.19
307.578	46985.18
307.644	47006.81
307.709	47057.34
307.775	47095.69
307.841	47131.35
307.907	47180.47
307.973	47155.51
308.039	47206.72
308.104	47276.98
308.17	47335.04
308.236	47314.28
308.302	47366.59
308.368	47364.6
308.433	47407.23
308.499	47452
308.565	47447.37
308.631	47510.42
308.696	47467.54
308.762	47466.23
308.828	47494.8
308.894	47477.75
308.959	47440.33
309.025	47455.34
309.091	47476.59
309.156	47492.09
309.222	47524.22
309.288	47517.06
309.354	47471.79
309.419	47499.87
309.485	47486.57
309.551	47530.34
309.616	47534.63
309.682	47550.95
309.748	47581.65
309.813	47603.19
309.879	47605.83
309.945	47615.57
310.01	47630.64
310.076	47694.77
310.141	47717.04
310.207	47702.85
310.273	47756.7
310.338	47818.54
310.404	47816.49
310.469	47802.84
310.535	47805.32
310.601	47775.05
310.666	47835.36
310.732	47921.19
310.797	47913.78
310.863	47911.68
310.928	47927.58
310.994	47960.68
311.059	48003.24
311.125	48037.9
311.191	48116.49
311.256	48117.52
311.322	48173.63
311.387	48152.37
311.453	48837.08
311.518	48889.66
311.584	48918.96
311.649	48971.19
311.715	48965.64
311.78	49011.8
311.846	49026.04
311.911	49092.67
311.976	49145.72
312.042	49118.84
312.107	49098.07
312.173	49107.48
312.238	49140.29
312.304	49171.8
312.369	49181.95
312.434	49175.95
312.5	49179.56
312.565	49093.07
312.631	49151.29
312.696	49172.7
312.761	49216.29
312.827	48575.57
312.892	48646.56
312.958	48684.57
313.023	48697.4
313.088	48744.6
313.154	48737.34
313.219	48737.29
313.284	48727.14
313.35	48742.65
313.415	48750.46
313.48	48775.28
313.546	48842.07
313.611	48913.11
313.676	48911.25
313.741	48933.01
313.807	49005.92
313.872	49062.46
313.937	49133.71
314.003	49202
314.068	49228.89
314.133	49271.53
314.198	49258.7
314.264	49222.07
314.329	49216.02
314.394	49247.31
314.459	49270.34
314.525	49366.37
314.59	49403.88
314.655	49393.98
314.72	49451.24
314.785	49497.93
314.851	49509.39
314.916	49462.11
314.981	49427.46
315.046	49413.4
315.111	49396.96
315.176	49375.92
315.242	49418.99
315.307	49441.3
315.372	49390.14
315.437	49392.67
315.502	49402.49
315.567	49485.08
315.632	49468.88
315.698	49505.49
315.763	49514.33
315.828	49508.82
315.893	49508.08
315.958	49508.48
316.023	49515.26
316.088	49457.7
316.153	49397.41
316.218	49384.19
316.283	49338.89
316.348	49301.24
316.413	49303.77
316.479	49266.76
316.544	49152.6
316.609	49014.73
316.674	48872.09
316.739	48759.77
316.804	48637.13
316.869	48501.91
316.934	48344.18
316.999	48210.65
317.064	48003.25
317.129	47815.04
317.194	47648.07
317.259	47454.21
317.324	47240.67
317.389	47029.23
317.454	46848.16
317.518	46700.86
317.583	46572.23
317.648	46449.06
317.713	46274.07
317.778	46031.66
317.843	45877.62
317.908	45701.27
317.973	45525.13
318.038	45386.7
318.103	45196.61
318.168	45020.9
318.233	44851.23
318.297	44627.31
318.362	44448.48
318.427	44237.17
318.492	44095.91
318.557	43878.2
318.622	43713.5
318.687	43562.1
318.751	43376.59
318.816	43193.9
318.881	42998.01
318.946	42731.6
319.011	42488.07
319.075	42262.81
319.14	42074.42
319.205	41842.21
319.27	41637.82
319.335	41406.63
319.399	41174.13
319.464	40990.56
319.529	40739.36
319.594	40498.2
319.658	40289.68
319.723	40038.55
319.788	39849.09
319.853	39556.96
319.917	39347.31
319.982	39054.12
320.047	38818.42
320.112	38613.36
320.176	38340.5
320.241	38111.69
320.306	37912.44
320.37	37668.17
320.435	37459.49
320.5	37237.74
320.564	36986.81
320.629	36730.55
320.694	36512.52
320.758	36260.54
320.823	36005.18
320.888	35783.39
320.952	35509.68
321.017	35261.14
321.082	35009.75
321.146	34778.34
321.211	34549.67
321.275	34296.34
321.34	34027.37
321.405	33760.45
321.469	33494.76
321.534	33231.35
321.598	32935.07
321.663	32710.25
321.727	32495.61
321.792	32217.87
321.857	31953.31
321.921	31707.23
321.986	31453.28
322.05	31131.53
322.115	30885.94
322.179	30606.36
322.244	30297.48
322.308	30061.48
322.373	29782.48
322.437	29525.74
322.502	29323.91
322.566	29035.69
322.631	28793.42
322.695	28543.07
322.76	28271.71
322.824	28019.13
322.889	27748.64
322.953	27477.67
323.018	27120.29
323.082	26763.82
323.146	26444.82
323.211	26132.64
323.275	25840.24
323.34	25555.72
323.404	25312.66
323.468	25016.16
323.533	24741.76
323.597	24451.96
323.662	24155.73
323.726	23900.87
323.79	23604.28
323.855	23240.1
323.919	22948.44
323.983	22668.24
324.048	22252.98
324.112	22430.3
324.177	21547.54
324.241	20378.29
324.305	19224.87
324.37	18092.92
324.434	16998.83
324.498	16704.23
324.562	16365.99
324.627	15986.23
324.691	15604.08
324.755	15174.92
324.82	14696.1
324.884	14179.53
324.948	13669.14
325.012	13027.29
325.077	12240.49
