Data from 20250701_urea_2M_exp3_MAYP1162681_07-39-52-287.txt Node
Date: Wed Jul 02 07:39:52 BST 2025
User: adleo
Spectrometer: MAYP116268
Trigger mode: 0
Integration Time (sec): 4.000000E0
Scans to average: 1
Electric dark correction enabled: true
Nonlinearity correction enabled: true
Boxcar width: 10
XAxis mode: Wavelengths
Number of Pixels in Spectrum: 2068
>>>>>Begin Spectral Data<<<<<
179.565	3772.37
179.642	3974.67
179.718	4125.22
179.795	4255.42
179.871	4370.21
179.948	4430.75
180.024	4499.62
180.101	4576.95
180.177	4624.57
180.254	4703.39
180.33	4778.02
180.407	5050.54
180.483	5341.18
180.56	5638.73
180.636	5911.88
180.712	5869.73
180.789	5903.51
180.865	5944.45
180.942	5973.13
181.018	6008.97
181.095	6049.39
181.171	6068.78
181.248	6065.8
181.324	6117.99
181.4	6147.85
181.477	6182.26
181.553	6229.46
181.63	6307.99
181.706	6364.55
181.782	6394.43
181.859	6389.44
181.935	6409.08
182.011	6395.35
182.088	6455.75
182.164	6519.31
182.24	6572.01
182.317	6604.5
182.393	6597.59
182.469	6646.18
182.546	6694.06
182.622	6709.71
182.698	6692.56
182.775	6731.9
182.851	6780.64
182.927	6754.94
183.003	6740.16
183.08	6721
183.156	6753.51
183.232	6738.95
183.308	6697.65
183.385	6729.67
183.461	6793.65
183.537	6797.25
183.613	6840.82
183.69	6810.5
183.766	6775.08
183.842	6791.8
183.918	6809.53
183.995	6857.84
184.071	6866.88
184.147	6850.25
184.223	6813.53
184.299	6858.55
184.375	6816.68
184.452	6840.04
184.528	6967.61
184.604	7004.64
184.68	7049.16
184.756	7072.76
184.832	7085.11
184.908	7103.11
184.985	7100.85
185.061	7046.48
185.137	7080.26
185.213	7041.21
185.289	7041.49
185.365	7017.48
185.441	7014.5
185.517	7061.33
185.593	7050.13
185.669	7048.11
185.745	7082.42
185.822	7141.05
185.898	7108.18
185.974	7147.61
186.05	7121.99
186.126	7043.95
186.202	7016.14
186.278	7000.28
186.354	6966.88
186.43	6990.68
186.506	6993.08
186.582	6986.31
186.658	7011.18
186.734	6941.11
186.81	6949.22
186.886	6963.1
186.962	7004.6
187.038	6988.51
187.114	6958.46
187.19	6980.47
187.266	6945.89
187.341	6940.5
187.417	6914.37
187.493	6923.54
187.569	6932.29
187.645	6909.28
187.721	6873.91
187.797	6904.27
187.873	6916.57
187.949	6897.74
188.025	6875.53
188.101	6879.76
188.176	6904.55
188.252	6887.64
188.328	6914.28
188.404	6918.51
188.48	6895.79
188.556	6873.79
188.632	6874.56
188.707	6879.99
188.783	6873.02
188.859	6854.3
188.935	6819.61
189.011	6844.02
189.086	6821.63
189.162	6792.81
189.238	6781.57
189.314	6772.21
189.39	6748.48
189.465	6729.69
189.541	6788.89
189.617	6733.71
189.693	6713.06
189.768	6718.25
189.844	6802.7
189.92	6777.89
189.996	6804.69
190.071	6844.56
190.147	6838.7
190.223	6873.78
190.298	6845.57
190.374	6795.19
190.45	6839.94
190.526	6869.48
190.601	6854.25
190.677	6848.97
190.753	6944.89
190.828	6961.55
190.904	7018.45
190.98	7076.26
191.055	7111.92
191.131	7080.29
191.207	7158.21
191.282	7196.82
191.358	7167.61
191.433	7116.79
191.509	7161.3
191.585	7150.05
191.66	7153.42
191.736	7182
191.811	7146.35
191.887	7204.51
191.963	7290.14
192.038	7304.51
192.114	7304.89
192.189	7314.02
192.265	7307.54
192.34	7229.01
192.416	7226.46
192.491	7206.8
192.567	7214.88
192.642	7227.09
192.718	7229.01
192.793	7185.86
192.869	7168.51
192.944	7176.01
193.02	7204.51
193.095	7217.73
193.171	7235.8
193.246	7231.42
193.322	7221.81
193.397	7224.31
193.473	7170.8
193.548	7107.93
193.624	7129.56
193.699	7128.6
193.775	7185.38
193.85	7191.58
193.925	7220.22
194.001	7220.37
194.076	7197.16
194.152	7158.89
194.227	7129.13
194.302	7097.72
194.378	7107.38
194.453	7094.12
194.529	7135.12
194.604	7083.07
194.679	7060.82
194.755	7000.5
194.83	7046.61
194.905	7042.19
194.981	7068.14
195.056	7047.35
195.131	7065.79
195.207	7060.12
195.282	7022.12
195.357	6955.69
195.433	7006.08
195.508	6970.66
195.583	6995.36
195.659	7041.79
195.734	7064
195.809	7052.75
195.884	7082.67
195.96	7087.53
196.035	7139.61
196.11	7127.2
196.185	7168.86
196.261	7182.89
196.336	7288.13
196.411	7239.18
196.486	7256.92
196.561	7238.65
196.637	7271.94
196.712	7328.35
196.787	7334.26
196.862	7388.22
196.937	7428.39
197.013	7449.02
197.088	7481.85
197.163	7555.1
197.238	7618.67
197.313	7612.71
197.388	7662.56
197.464	7766.07
197.539	7801.84
197.614	7782.27
197.689	7822.91
197.764	7874.28
197.839	7944.11
197.914	7922.17
197.989	7994.65
198.065	8042.02
198.14	8217.74
198.215	8307.41
198.29	8346.78
198.365	8389.07
198.44	8426.15
198.515	8518.16
198.59	8572.69
198.665	8661.42
198.74	8684.29
198.815	8685.11
198.89	8776.48
198.965	8877.67
199.04	8864.77
199.115	8917.99
199.19	9064.91
199.265	9070.98
199.34	9110.79
199.415	9223.34
199.49	9295.34
199.565	9331.35
199.64	9414.21
199.715	9401.49
199.79	9420.27
199.865	9444.44
199.94	9444.54
200.015	9558.67
200.09	9578.03
200.165	9599.46
200.24	9622.67
200.315	9760.81
200.39	9814.9
200.464	9827.61
200.539	9834.84
200.614	9882.56
200.689	9967.86
200.764	9986.02
200.839	10050.49
200.914	10060.17
200.989	10022.01
201.063	10076.34
201.138	10014.39
201.213	10010.73
201.288	9940.37
201.363	9962.43
201.438	9965.27
201.512	10018.91
201.587	9951.37
201.662	9957.2
201.737	9998.05
201.812	10021.31
201.886	9901.91
201.961	9928.12
202.036	9888.69
202.111	9877.65
202.186	9780.95
202.26	9719.63
202.335	9649.01
202.41	9626.91
202.485	9575.92
202.559	9505.62
202.634	9408.21
202.709	9446.7
202.784	9379.78
202.858	9379.05
202.933	9311.93
203.008	9283.76
203.082	9217.33
203.157	9215.35
203.232	9071.57
203.306	8993.16
203.381	8886.13
203.456	8810.22
203.53	8729.92
203.605	8658.44
203.68	8578.13
203.754	8554.19
203.829	8501.91
203.904	8428.63
203.978	8390.85
204.053	8398.88
204.127	8364.87
204.202	8359.43
204.277	8288.14
204.351	8267.06
204.426	8246.9
204.5	8213.51
204.575	8095.02
204.65	8125.91
204.724	8101.36
204.799	8125.49
204.873	8115.43
204.948	8106.34
205.022	8069.41
205.097	8042.07
205.171	8086.75
205.246	8117.26
205.32	8115.05
205.395	8112.6
205.469	8083.95
205.544	8098.1
205.618	8038.88
205.693	8076.7
205.767	8034.76
205.842	8120.45
205.916	8101.64
205.991	8066.67
206.065	8094.28
206.14	8146.86
206.214	8132.99
206.289	8109.17
206.363	8155.54
206.438	8164.21
206.512	8187.25
206.586	8254.63
206.661	8278.41
206.735	8209.9
206.81	8212.65
206.884	8259.78
206.958	8214.71
207.033	8272.36
207.107	8297.68
207.181	8408.08
207.256	8381.76
207.33	8447.67
207.405	8484.51
207.479	8546.49
207.553	8570.73
207.628	8508.36
207.702	8548.67
207.776	8527.31
207.851	8537.12
207.925	8588.2
207.999	8578.29
208.073	8573.72
208.148	8579.3
208.222	8542.48
208.296	8650.12
208.371	8699.58
208.445	8743.67
208.519	8842.5
208.593	8885.86
208.668	8876.76
208.742	8881.72
208.816	8889.18
208.89	8931.84
208.965	8920.52
209.039	8950.91
209.113	9009.92
209.187	9087.17
209.261	9074.37
209.336	9138.49
209.41	9205.51
209.484	9207
209.558	9277.68
209.632	9322.54
209.707	9367.56
209.781	9441.51
209.855	9491.5
209.929	9551.64
210.003	9568.97
210.077	9559.92
210.151	9722.25
210.226	9831.12
210.3	9920.65
210.374	10003.75
210.448	10023.31
210.522	10066.14
210.596	10098.08
210.67	10131.75
210.744	10289.18
210.818	10400.71
210.892	10474.47
210.966	10461.61
211.041	10508.34
211.115	10499.86
211.189	10580.98
211.263	10630.41
211.337	10642.84
211.411	10692.9
211.485	10672.09
211.559	10710.86
211.633	10720.83
211.707	10606.23
211.781	10636.26
211.855	10510.46
211.929	10481.76
212.003	10415.2
212.077	10442
212.151	10479.82
212.225	10503.1
212.299	10460.68
212.373	10415.54
212.447	10394.34
212.52	10483.81
212.594	10493.98
212.668	10524.43
212.742	10474.61
212.816	10451.38
212.89	10434.47
212.964	10419.58
213.038	10421.9
213.112	10466.95
213.186	10515.12
213.26	10441.74
213.333	10274.73
213.407	10295.29
213.481	10291.92
213.555	10319.03
213.629	10270.98
213.703	10204.93
213.777	10192.64
213.85	10119.75
213.924	10222.62
213.998	10214.38
214.072	10180.46
214.146	10126.79
214.219	10105.78
214.293	10082.13
214.367	10077.03
214.441	10100.68
214.515	10052.16
214.588	9965.84
214.662	9823.28
214.736	9740.35
214.81	9756.42
214.883	9779.38
214.957	9725.08
215.031	9669.24
215.105	9580.76
215.178	9513.72
215.252	9473.71
215.326	9372.73
215.4	9283.5
215.473	9103.42
215.547	9014.66
215.621	8944.96
215.694	8929.79
215.768	8837.46
215.842	8767.67
215.915	8691.06
215.989	8579.94
216.063	8521.58
216.136	8494.48
216.21	8474.71
216.284	8483.86
216.357	8455.75
216.431	8411.86
216.504	8409.89
216.578	8463.61
216.652	8475.82
216.725	8453.15
216.799	8460.47
216.873	8442
216.946	8452.38
217.02	8411.76
217.093	8377.74
217.167	8280.75
217.24	8198.84
217.314	8160.95
217.387	8115.13
217.461	8072.32
217.535	8090.31
217.608	8024.42
217.682	7993.48
217.755	8003.63
217.829	7941.62
217.902	7920.98
217.976	7896.89
218.049	7851.48
218.123	7773.34
218.196	7771.7
218.27	7734.47
218.343	7657.64
218.417	7652.54
218.49	7628.21
218.563	7668.55
218.637	7676.87
218.71	7747.24
218.784	7776.87
218.857	7805.77
218.931	7826.19
219.004	7837.69
219.077	7859.3
219.151	7880.11
219.224	7874.87
219.298	7869.19
219.371	7916.14
219.444	7874.56
219.518	7884.37
219.591	7898.65
219.665	8009.5
219.738	8020.71
219.811	8004.36
219.885	8055.69
219.958	8096.53
220.031	8100.33
220.105	8125.59
220.178	8131.65
220.251	8101.39
220.325	8124.05
220.398	8147.77
220.471	8173.21
220.544	8202.12
220.618	8172.38
220.691	8200.62
220.764	8216.49
220.838	8246.18
220.911	8235.16
220.984	8325.62
221.057	8359.78
221.131	8384.7
221.204	8285.24
221.277	8359.75
221.35	8486.21
221.424	8480.05
221.497	8484.62
221.57	8507.56
221.643	8539.67
221.716	8587.7
221.79	8594
221.863	8605.85
221.936	8614.8
222.009	8626.1
222.082	8663.84
222.155	8676.06
222.229	8736.96
222.302	8770.69
222.375	8777.09
222.448	8818.44
222.521	8823.11
222.594	8825.76
222.667	8795.65
222.74	8853.44
222.814	8841.4
222.887	8823.49
222.96	8878.32
223.033	8921.17
223.106	8951.1
223.179	8983.37
223.252	8994.88
223.325	9027.41
223.398	9042.67
223.471	9074.68
223.544	9099.9
223.617	9106.93
223.69	9127.91
223.763	9091.13
223.837	9112.36
223.91	9144.14
223.983	9089.51
224.056	9061.4
224.129	9083.93
224.202	9143.2
224.275	9124.52
224.348	9101.46
224.42	9063.48
224.493	9002.49
224.566	8976.15
224.639	8993.52
224.712	8962.8
224.785	8952.59
224.858	8941.61
224.931	8924.47
225.004	8879.08
225.077	8871.82
225.15	8781.83
225.223	8779.62
225.296	8859.18
225.369	8799.55
225.442	8761.52
225.514	8783.46
225.587	8794
225.66	8801.94
225.733	8798.33
225.806	8812.48
225.879	8794.34
225.952	8768.16
226.025	8813.55
226.097	8863.49
226.17	8856.61
226.243	8791.69
226.316	8778.83
226.389	8786.92
226.461	8803.1
226.534	8826.29
226.607	8817.73
226.68	8901.93
226.753	8898.95
226.825	8821.51
226.898	8881.04
226.971	8888.26
227.044	8907.99
227.117	8918
227.189	8936.5
227.262	8975.64
227.335	8992.4
227.407	8994.03
227.48	9022.71
227.553	9037.54
227.626	9016.93
227.698	9023.14
227.771	9061.82
227.844	9046.9
227.916	9064.33
227.989	9025.57
228.062	9020.38
228.134	9107
228.207	9109.55
228.28	9108.4
228.352	9122.65
228.425	9130.83
228.498	9178.6
228.57	9154.2
228.643	9215.69
228.716	9213.14
228.788	9200.33
228.861	9199.9
228.934	9256.9
229.006	9267.29
229.079	9262.96
229.151	9253.42
229.224	9214.44
229.296	9238.22
229.369	9345.97
229.442	9391.29
229.514	9376.42
229.587	9424.42
229.659	9356.42
229.732	9370.25
229.804	9411.7
229.877	9489.35
229.949	9521.33
230.022	9568.02
230.094	9568.93
230.167	9544.85
230.239	9507.39
230.312	9501.71
230.384	9571.94
230.457	9577.1
230.529	9590.43
230.602	9598.38
230.674	9609.41
230.747	9658.36
230.819	9691.88
230.892	9568.44
230.964	9573.26
231.037	9605.26
231.109	9591.59
231.181	9629.53
231.254	9589.61
231.326	9575.26
231.399	9549.19
231.471	9520.63
231.544	9442.45
231.616	9488.57
231.688	9506.49
231.761	9494.26
231.833	9474.81
231.905	9387.24
231.978	9380.45
232.05	9356.72
232.122	9357.88
232.195	9331.68
232.267	9368.09
232.339	9344.63
232.412	9409.38
232.484	9378.6
232.556	9352.04
232.629	9421.26
232.701	9437.83
232.773	9454.58
232.846	9436.87
232.918	9445.06
232.99	9465.38
233.062	9504.34
233.135	9527.27
233.207	9488.55
233.279	9531.44
233.351	9569.52
233.424	9567.65
233.496	9547.08
233.568	9637.48
233.64	9603.92
233.713	9627.13
233.785	9618.56
233.857	9630.65
233.929	9580.29
234.001	9652.84
234.074	9721.74
234.146	9644.76
234.218	9641.34
234.29	9642.25
234.362	9629.64
234.434	9580.08
234.507	9542.85
234.579	9489.5
234.651	9462.72
234.723	9502.45
234.795	9522.44
234.867	9510.88
234.939	9573.63
235.012	9591.26
235.084	9595.35
235.156	9634.35
235.228	9611.62
235.3	9601.27
235.372	9620.01
235.444	9678.46
235.516	9595.74
235.588	9600.08
235.66	9624.01
235.732	9597.38
235.804	9796.98
235.876	9849.12
235.948	9917.96
236.02	9933.13
236.092	9955.18
236.164	9969.34
236.236	9962.4
236.308	9960.33
236.38	9992.02
236.452	9977.47
236.524	9997.36
236.596	10063.97
236.668	10094.66
236.74	10118.25
236.812	10149.08
236.884	10176.16
236.956	10193.98
237.028	10191.62
237.1	10175.68
237.172	10245.69
237.244	10328.02
237.316	10207.18
237.388	10190.37
237.46	10160.88
237.532	10221.53
237.604	10212.14
237.675	10290.05
237.747	10339
237.819	10329.51
237.891	10334.52
237.963	10324.89
238.035	10323.15
238.107	10202.88
238.178	10267.31
238.25	10270.59
238.322	10357.86
238.394	10310.84
238.466	10308
238.538	10351.3
238.609	10397.45
238.681	10344.45
238.753	10319.73
238.825	10340.74
238.897	10369.64
238.968	10453.88
239.04	10438.8
239.112	10557.07
239.184	10514.04
239.255	10506.76
239.327	10544.33
239.399	10570.83
239.471	10620.7
239.542	10663.19
239.614	10740.23
239.686	10659.51
239.758	10717.09
239.829	10681.95
239.901	10750.8
239.973	10765.64
240.044	10798.55
240.116	10813.68
240.188	10829.86
240.259	10848.99
240.331	10831.93
240.403	10871.49
240.474	10824.93
240.546	10816.16
240.618	10753.37
240.689	10753.9
240.761	10776.75
240.833	10841.75
240.904	10843.92
240.976	10837.18
241.048	10846.52
241.119	10881.52
241.191	10933.41
241.262	11005.37
241.334	11008.12
241.405	11016.46
241.477	11024.89
241.549	11035.06
241.62	11060.45
241.692	11106.14
241.763	11164.55
241.835	11196.79
241.906	11213.42
241.978	11187.35
242.049	11259.68
242.121	11321.17
242.192	11397.07
242.264	11360.5
242.335	11315.25
242.407	11354.19
242.478	11361.41
242.55	11384.84
242.621	11372.69
242.693	11366.33
242.764	11353.12
242.836	11358.9
242.907	11391.39
242.979	11425.51
243.05	11449.08
243.122	11472.79
243.193	11468.98
243.264	11398.09
243.336	11396.93
243.407	11435.59
243.479	11520.12
243.55	11530.19
243.622	11544.89
243.693	11531.97
243.764	11608.75
243.836	11581.43
243.907	11572.99
243.978	11583.11
244.05	11608.76
244.121	11560.85
244.192	11604.08
244.264	11550.2
244.335	11567.02
244.407	11517.62
244.478	11533.33
244.549	11515.31
244.62	11473.86
244.692	11475.88
244.763	11521.62
244.834	11514.82
244.906	11496.89
244.977	11512.89
245.048	11566.69
245.119	11542.45
245.191	11521.48
245.262	11456.46
245.333	11539.25
245.405	11565.09
245.476	11593.52
245.547	11607.21
245.618	11663.94
245.689	11674.64
245.761	11711.85
245.832	11714.79
245.903	11758.07
245.974	11780.29
246.045	11798.99
246.117	11876.3
246.188	11861.12
246.259	11841.94
246.33	11857.36
246.401	11870.81
246.473	11837.6
246.544	11818.41
246.615	11877.17
246.686	11880.73
246.757	11953.75
246.828	11929.84
246.899	11993.76
246.97	11963.21
247.042	11960.89
247.113	12003.99
247.184	12095.19
247.255	12098.86
247.326	12125.9
247.397	12135.3
247.468	12152.7
247.539	12174.34
247.61	12134.19
247.681	12175.2
247.752	12236.66
247.823	12210.58
247.894	12222.54
247.965	12193.86
248.037	12188.32
248.108	12136.6
248.179	12151.63
248.25	12152.79
248.321	12183.45
248.392	12139.87
248.463	12224.22
248.534	12220.02
248.605	12239.64
248.675	12209.32
248.746	12226.19
248.817	12236.85
248.888	12259.31
248.959	12202
249.03	12222.87
249.101	12241.04
249.172	12232.17
249.243	12156.5
249.314	12224.13
249.385	12227.79
249.456	12257.14
249.527	12248.9
249.598	12275.46
249.669	12271.07
249.739	12279.12
249.81	12298.31
249.881	12254.68
249.952	12249.24
250.023	12249.57
250.094	12191.58
250.165	12164.11
250.235	12158.85
250.306	12170.86
250.377	12137.16
250.448	12165.65
250.519	12107.13
250.59	12152.3
250.66	12156.25
250.731	12227.15
250.802	12220.16
250.873	12242.77
250.944	12266.49
251.014	12260.41
251.085	12349.11
251.156	12376.29
251.227	12428.84
251.297	12482.73
251.368	12537.11
251.439	12576.92
251.51	12629.66
251.58	12620.89
251.651	12614.81
251.722	12675.02
251.792	12629.13
251.863	12635.3
251.934	12697.05
252.005	12808.69
252.075	12816.36
252.146	12861.18
252.217	12909.29
252.287	12956.78
252.358	12958.61
252.429	13033.71
252.499	13025.18
252.57	13042.63
252.641	13101.97
252.711	13104.58
252.782	13061.87
252.852	13130.66
252.923	13127.62
252.994	13138.18
253.064	13188.65
253.135	13171.82
253.205	13146.51
253.276	13218.34
253.347	13285.1
253.417	13262.45
253.488	13246.1
253.558	13232.51
253.629	13228.41
253.699	13240.95
253.77	13271.65
253.841	13277.82
253.911	13284.96
253.982	13305.97
254.052	13328.29
254.123	13327.47
254.193	13333.45
254.264	13470.4
254.334	13440.18
254.405	13409.23
254.475	13380.16
254.546	13385.66
254.616	13446.97
254.687	13482.31
254.757	13508.05
254.827	13506.56
254.898	13530.85
254.968	13530.66
255.039	13517.74
255.109	13561.46
255.18	13531.24
255.25	13462.88
255.321	13493.16
255.391	13454.54
255.461	13536.97
255.532	13451.65
255.602	13444.42
255.673	13388.45
255.743	13348.44
255.813	13279.46
255.884	13330.85
255.954	13365.9
256.024	13443.17
256.095	13446.69
256.165	13402.48
256.235	13418.49
256.306	13400.89
256.376	13450.16
256.446	13491.62
256.517	13529.22
256.587	13575.79
256.657	13600.27
256.728	13623.99
256.798	13634.69
256.868	13633.25
256.938	13606.35
257.009	13656.68
257.079	13694.18
257.149	13799.56
257.219	13736.46
257.29	13782.2
257.36	13722.72
257.43	13766.01
257.5	13690.42
257.571	13682.95
257.641	13727.06
257.711	13690.13
257.781	13726.48
257.852	13741.85
257.922	13686.03
257.992	13689.26
258.062	13675.52
258.132	13721.61
258.202	13718.28
258.273	13731.54
258.343	13803.56
258.413	13796.81
258.483	13797.15
258.553	13769.77
258.623	13737.9
258.693	13765.33
258.764	13827.18
258.834	13900.79
258.904	13918.19
258.974	13904.07
259.044	13905.03
259.114	13934.1
259.184	13967.07
259.254	13979.41
259.324	13930.97
259.394	13978.31
259.464	14053.94
259.535	14065.17
259.605	14054.37
259.675	14053.55
259.745	14083.3
259.815	14063.77
259.885	14056.16
259.955	14173.67
260.025	14158.3
260.095	14175.46
260.165	14205.34
260.235	14271.87
260.305	14249.26
260.375	14209.01
260.445	14303.2
260.515	14382.21
260.585	14425.3
260.655	14434.61
260.725	14474.04
260.795	14507.93
260.865	14579.56
260.934	14548.8
261.004	14576.33
261.074	14583.9
261.144	14640.44
261.214	14676.35
261.284	14676.16
261.354	14721.86
261.424	14677.76
261.494	14755.18
261.564	14760.24
261.634	14793.26
261.703	14715.07
261.773	14751.52
261.843	14786.75
261.913	14780.82
261.983	14724.18
262.053	14748.33
262.123	14748.43
262.192	14709.19
262.262	14754.6
262.332	14705.29
262.402	14740.14
262.472	14749.54
262.541	14686.77
262.611	14743.03
262.681	14716.03
262.751	14758.74
262.821	14761.44
262.89	14736.76
262.96	14761.44
263.03	14841.02
263.1	14859.44
263.169	14884.41
263.239	14919.35
263.309	14990.5
263.379	15025.35
263.448	15038.41
263.518	15063.96
263.588	15076.01
263.657	15150.68
263.727	15185.67
263.797	15203.03
263.867	15197.96
263.936	15156.17
264.006	15230.36
264.076	15221.54
264.145	15222.36
264.215	15200.23
264.285	15239.18
264.354	15189.53
264.424	15174.25
264.494	15117.28
264.563	15108.41
264.633	15203.08
264.702	15221.44
264.772	15160.27
264.842	15146.92
264.911	15176.76
264.981	15131.45
265.05	15144.95
265.12	15138.92
265.19	15152.85
265.259	15191.37
265.329	15229.49
265.398	15267.48
265.468	15360.36
265.537	15352.46
265.607	15389.28
265.676	15438.83
265.746	15464.43
265.815	15527.05
265.885	15535.38
265.955	15524.73
266.024	15527.96
266.094	15450.89
266.163	15505.74
266.232	15581.32
266.302	15599.78
266.371	15632.36
266.441	15659.35
266.51	15706.4
266.58	15709.97
266.649	15686.69
266.719	15745
266.788	15774.12
266.858	15835.81
266.927	15767.18
266.996	15793.83
267.066	15822.61
267.135	15794.75
267.205	15840
267.274	15858.9
267.343	15919.63
267.413	15942.09
267.482	16000.32
267.552	16069.87
267.621	16024.47
267.69	15975.88
267.76	16001.72
267.829	16026.78
267.898	16043.31
267.968	16020.23
268.037	16057.24
268.106	16113.15
268.176	16080.38
268.245	16091.17
268.314	16087.56
268.384	16143.23
268.453	16167.91
268.522	16189.31
268.592	16258.33
268.661	16237.8
268.73	16263.39
268.799	16246.14
268.869	16325.52
268.938	16288.02
269.007	16273.18
269.076	16295.49
269.146	16355.93
269.215	16380.95
269.284	16456.08
269.353	16451.12
269.422	16467.36
269.492	16461.96
269.561	16375.01
269.63	16406.15
269.699	16401.43
269.768	16415.88
269.838	16438.97
269.907	16471.94
269.976	16446.3
270.045	16387.78
270.114	16431.93
270.183	16446.34
270.253	16477.96
270.322	16427.98
270.391	16443.16
270.46	16516.56
270.529	16566.68
270.598	16602.4
270.667	16610.2
270.736	16578.06
270.806	16617.29
270.875	16672.81
270.944	16680.43
271.013	16809.5
271.082	16833.07
271.151	16864.58
271.22	16830.85
271.289	16844.87
271.358	16858.32
271.427	16898.13
271.496	16920.06
271.565	16917.26
271.634	16939.87
271.703	17067.48
271.772	17135.24
271.841	17154.52
271.91	17119.48
271.979	17137.12
272.048	17103.92
272.117	17160.01
272.186	17165.32
272.255	17214.95
272.324	17255.05
272.393	17295.73
272.462	17284.74
272.531	17305.61
272.6	17321.22
272.669	17401.32
272.738	17406.38
272.807	17439.63
272.876	17424.69
272.945	17575.63
273.013	17633.66
273.082	17701.99
273.151	17611.78
273.22	17647.15
273.289	17673.66
273.358	17760.36
273.427	17769.13
273.496	17825.75
273.564	17852.79
273.633	17906.86
273.702	17895.97
273.771	17915.1
273.84	17948.4
273.909	17987.2
273.977	18022.86
274.046	18038.66
274.115	18092.97
274.184	18090.13
274.253	18096.16
274.322	18171
274.39	18103.87
274.459	18099.53
274.528	18051.1
274.597	18068.64
274.665	18097.99
274.734	18168.35
274.803	18173.07
274.872	18204.73
274.94	18205.94
275.009	18440.33
275.078	18433.77
275.147	18468.33
275.215	18501.29
275.284	18567.31
275.353	18585.52
275.421	18553
275.49	18653.18
275.559	18658.77
275.627	18689.52
275.696	18722.82
275.765	18768.7
275.833	18795.49
275.902	18832.11
275.971	18919.24
276.039	19012.11
276.108	19060.15
276.177	19096.92
276.245	19109.5
276.314	19134.17
276.383	19190.07
276.451	19015.73
276.52	19068.16
276.588	19146.95
276.657	19204.2
276.725	19207.52
276.794	19244.58
276.863	19336.33
276.931	19289.54
277	19353.06
277.068	19431.94
277.137	19529.77
277.205	19561.96
277.274	19656.99
277.342	19743.06
277.411	19708.32
277.48	19705.43
277.548	19716.9
277.617	19756.17
277.685	19777.47
277.754	19836.7
277.822	19856.46
277.89	19945.18
277.959	19974.82
278.027	19957.18
278.096	19956.02
278.164	20095.84
278.233	20114.2
278.301	20111.36
278.37	20176.27
278.438	20179.98
278.507	20233.81
278.575	20193.47
278.643	20227.02
278.712	20219.31
278.78	20202.39
278.849	20290.14
278.917	20370.87
278.985	20400.99
279.054	20455.16
279.122	20543.21
279.191	20570.58
279.259	20595.35
279.327	20571.59
279.396	20668.23
279.464	20702.68
279.532	20767.89
279.601	20789.97
279.669	20829.15
279.737	20916.05
279.806	20972.44
279.874	21046.03
279.942	21071.38
280.011	21108.11
280.079	21169.13
280.147	21262.29
280.215	21330.68
280.284	21362.68
280.352	21359.94
280.42	21426.93
280.488	21438.4
280.557	21447.47
280.625	21511.38
280.693	21560.92
280.761	21619.29
280.83	21598.42
280.898	21681.37
280.966	21668.75
281.034	21607.09
281.102	21612.01
281.171	21635.1
281.239	21714.98
281.307	21727.75
281.375	21745.06
281.443	21872.37
281.512	21903.08
281.58	21967.54
281.648	21956.26
281.716	22002.82
281.784	22051.12
281.852	22078.02
281.92	22113.45
281.989	22196.32
282.057	22184.46
282.125	22372.38
282.193	22402.13
282.261	22458.87
282.329	22494.21
282.397	22549.21
282.465	22603.68
282.533	22692.95
282.601	22707.32
282.67	22660.84
282.738	22683.35
282.806	22758.7
282.874	22757.4
282.942	22817.05
283.01	22831.66
283.078	22899.2
283.146	22929.77
283.214	22999.59
283.282	23041.05
283.35	23125.59
283.418	23139.38
283.486	23194.14
283.554	23103.17
283.622	23143
283.69	23175.93
283.758	23200.09
283.826	23264.75
283.894	23342.1
283.962	23450.53
284.03	23546.64
284.098	23594.18
284.165	23623.92
284.233	23666.89
284.301	23689.17
284.369	23700.6
284.437	23720.86
284.505	23754.38
284.573	23846.97
284.641	23854.21
284.709	23944.56
284.777	23928.84
284.845	24005.2
284.912	24075.86
284.98	24139.09
285.048	24170.68
285.116	24235.22
285.184	24326.73
285.252	24373.28
285.319	24371.06
285.387	24381.48
285.455	24371.74
285.523	24452.2
285.591	24499.56
285.659	24545.58
285.726	24636.67
285.794	24638.12
285.862	24680.76
285.93	24722.87
285.997	24757.42
286.065	24787.52
286.133	24785.4
286.201	24841.07
286.269	24841.7
286.336	24849.42
286.404	24877.69
286.472	24950.02
286.539	24928.75
286.607	24915.67
286.675	24965.23
286.743	25035.15
286.81	25061.21
286.878	25147.68
286.946	25164.09
287.013	25197.57
287.081	25239.07
287.149	25228.21
287.216	25342.34
287.284	25371.78
287.352	25419.89
287.419	25449.96
287.487	25543.5
287.555	25605
287.622	25629.8
287.69	25689.36
287.758	25784.65
287.825	25816.21
287.893	25829.92
287.96	25890.81
288.028	25964.76
288.096	26017.05
288.163	26071.22
288.231	26077.01
288.298	26119.36
288.366	26208.58
288.433	26245.26
288.501	26264.33
288.569	26322.16
288.636	26343.02
288.704	26429.65
288.771	26503.96
288.839	26518.93
288.906	26536.89
288.974	26604.13
289.041	26641.59
289.109	26658.98
289.176	26717.67
289.244	26773.97
289.311	26854.82
289.379	26936.08
289.446	26996.03
289.514	27031.92
289.581	27075.49
289.649	27143.58
289.716	27191.02
289.783	27220.88
289.851	27345.92
289.918	27406.2
289.986	27479.24
290.053	27532.96
290.121	27572.25
290.188	27619.74
290.255	27766.54
290.323	27797.36
290.39	27824.91
290.458	27902.68
290.525	27992.36
290.592	28025.17
290.66	28079.57
290.727	28112.29
290.794	28211.38
290.862	28242.07
290.929	28303.88
290.996	28345.4
291.064	28411.99
291.131	28502.06
291.198	28577.33
291.266	28591.93
291.333	28635.28
291.4	28698.18
291.468	28808.14
291.535	28838.79
291.602	28895.79
291.669	28908.56
291.737	28982.61
291.804	29032.75
291.871	29129.46
291.938	29192.23
292.006	29336.71
292.073	29410.73
292.14	29485.4
292.207	29500.45
292.275	29555.09
292.342	29624.06
292.409	29757.97
292.476	29881.35
292.543	29891.85
292.611	29942.02
292.678	30054.3
292.745	30179.92
292.812	30258.27
292.879	30279.17
292.946	30336.87
293.014	30428
293.081	30496.86
293.148	30574.26
293.215	30664.23
293.282	30695
293.349	30772.06
293.416	30732.12
293.484	30827.81
293.551	30910.05
293.618	31014.3
293.685	31156.4
293.752	31175.27
293.819	31207.38
293.886	31217.5
293.953	31284.73
294.02	31360.06
294.087	31428
294.154	31447.22
294.221	31533.3
294.288	31582
294.356	31685.32
294.423	31741.5
294.49	31759.03
294.557	31841.69
294.624	31856.9
294.691	31963.15
294.758	32011.49
294.825	32097.74
294.892	32117.07
294.959	32158.68
295.026	32222.24
295.093	32229.03
295.16	32282.04
295.226	32331.65
295.293	32465.6
295.36	32527.7
295.427	32623.8
295.494	32697.57
295.561	32783.31
295.628	32893.96
295.695	33005.9
295.762	33071.23
295.829	33159.16
295.896	33268.12
295.963	33352.22
296.03	33439.53
296.096	33501.05
296.163	33585.39
296.23	33682.25
296.297	33779.23
296.364	33826.24
296.431	33901.68
296.498	33948.74
296.564	34087.66
296.631	34152.62
296.698	34143.06
296.765	34260.39
296.832	34267.96
296.899	34281.34
296.965	34390.5
297.032	34383.03
297.099	34492.13
297.166	34574.48
297.233	34615.95
297.299	34649.31
297.366	34708.69
297.433	34761.44
297.5	34851.86
297.566	34905.71
297.633	34951.79
297.7	35019.6
297.767	35076.73
297.833	35144.75
297.9	35203.81
297.967	35203.67
298.033	35291.58
298.1	35439.86
298.167	35467.96
298.234	35546.74
298.3	35632.6
298.367	35664.87
298.434	35741.2
298.5	35737.32
298.567	35759.59
298.634	35800.2
298.7	35912.92
298.767	35963.92
298.834	36070.24
298.9	36091.74
298.967	36115.13
299.033	36198.27
299.1	36296.85
299.167	36397.01
299.233	36431.43
299.3	36523.82
299.366	36636.16
299.433	36734.43
299.5	36701.42
299.566	36765.19
299.633	36867.04
299.699	36949.18
299.766	36983.98
299.832	37050.31
299.899	37136.68
299.965	37245.76
300.032	37284.2
300.099	37344.12
300.165	37409.56
300.232	37445.15
300.298	37508.9
300.365	37608.95
300.431	37649.74
300.498	37659.31
300.564	37715.83
300.631	37792.69
300.697	37887.49
300.763	37922.01
300.83	37955.09
300.896	38044.04
300.963	38120.72
301.029	38175.94
301.096	38235.88
301.162	38330.43
301.229	38367.44
301.295	38379.34
301.361	38423.2
301.428	38480.73
301.494	38470.54
301.561	38529.31
301.627	38602.06
301.693	38655.25
301.76	38714.17
301.826	38755.65
301.892	38856.39
301.959	38938.44
302.025	38983.37
302.092	39006.35
302.158	39077.65
302.224	39143.98
302.291	39172.73
302.357	39213
302.423	39244.92
302.49	39271.25
302.556	39350.7
302.622	39384.36
302.688	39466.22
302.755	39549.84
302.821	39626.16
302.887	39727.44
302.954	39772.91
303.02	39834.09
303.086	39900.16
303.152	39947.54
303.219	39976.15
303.285	40034.33
303.351	40094.78
303.417	40158.29
303.483	40183.85
303.55	40215.48
303.616	40252.66
303.682	40291.43
303.748	40315.72
303.815	40414.24
303.881	40483.24
303.947	40484.9
304.013	40546.13
304.079	40575.48
304.145	40557.93
304.212	40599.48
304.278	40603.76
304.344	40621.44
304.41	40631.65
304.476	40647.44
304.542	40669.7
304.608	40748.04
304.674	40725.88
304.741	40747.32
304.807	40787.27
304.873	40853.12
304.939	40949.75
305.005	40919.47
305.071	40966.41
305.137	41019.73
305.203	40970.34
305.269	41016.86
305.335	41091.23
305.401	41128.66
305.467	41165.7
305.533	41245.56
305.599	41317.26
305.666	41403.97
305.732	41468.13
305.798	41541.87
305.864	41658.4
305.93	41722.03
305.996	41765.59
306.062	41822.51
306.128	41855.08
306.194	41852.17
306.259	41897.62
306.325	41902.53
306.391	41982.79
306.457	42038.69
306.523	42090.56
306.589	42227.24
306.655	42235.5
306.721	42215.96
306.787	42224.13
306.853	42304.35
306.919	42292.88
306.985	42299.59
307.051	42318.6
307.117	42320.88
307.183	42355.07
307.248	42298.86
307.314	42348.99
307.38	42390.61
307.446	42458.21
307.512	42475.86
307.578	42533.23
307.644	42552.24
307.709	42596.15
307.775	42630.38
307.841	42669.72
307.907	42710.81
307.973	42667.47
308.039	42709.34
308.104	42781.21
308.17	42817.72
308.236	42805.47
308.302	42847.91
308.368	42859.49
308.433	42892.99
308.499	42927.12
308.565	42915.3
308.631	42978.13
308.696	42941.8
308.762	42924.25
308.828	42939.91
308.894	42903.69
308.959	42873.25
309.025	42887.11
309.091	42915.37
309.156	42937.16
309.222	42977.72
309.288	42973.54
309.354	42941.4
309.419	42976.22
309.485	42967.9
309.551	43020.09
309.616	43023.3
309.682	43054.86
309.748	43082.63
309.813	43101.3
309.879	43112.88
309.945	43110.01
310.01	43124.41
310.076	43173.96
310.141	43195.02
310.207	43176.34
310.273	43236.88
310.338	43289.98
310.404	43268.49
310.469	43263.82
310.535	43278.12
310.601	43243.44
310.666	43303.95
310.732	43389.64
310.797	43384.73
310.863	43390.71
310.928	43401.31
310.994	43448.01
311.059	43475.2
311.125	43498.79
311.191	43570.01
311.256	43582.32
311.322	43651.63
311.387	43622.15
311.453	44527.67
311.518	44540.02
311.584	44581.27
311.649	44622.77
311.715	44623.64
311.78	44666.73
311.846	44676.99
311.911	44710.42
311.976	44758.47
312.042	44733.71
312.107	44714.3
312.173	44718.1
312.238	44735.7
312.304	44767.18
312.369	44768.35
312.434	44771.95
312.5	44786.74
312.565	44726.02
312.631	44774.47
312.696	44771.16
312.761	44823.2
312.827	43954.9
312.892	44074.81
312.958	44104.29
313.023	44143.46
313.088	44185.64
313.154	44179.46
313.219	44178.58
313.284	44186.51
313.35	44200.28
313.415	44200.19
313.48	44223
313.546	44278.71
313.611	44342.4
313.676	44338.02
313.741	44354.8
313.807	44403.27
313.872	44446.57
313.937	44505.39
314.003	44579.71
314.068	44615.62
314.133	44660.63
314.198	44671.52
314.264	44636.47
314.329	44634.82
314.394	44657.26
314.459	44681.29
314.525	44787.51
314.59	44814.32
314.655	44818.21
314.72	44873.64
314.785	44924.53
314.851	44937.77
314.916	44903.51
314.981	44875.24
315.046	44867.41
315.111	44856.31
315.176	44846.68
315.242	44877.19
315.307	44903.18
315.372	44858.74
315.437	44858.26
315.502	44870.13
315.567	44936.72
315.632	44915.01
315.698	44952.1
315.763	44954.72
315.828	44953.02
315.893	44950.34
315.958	44951.51
316.023	44934.38
316.088	44882.89
316.153	44831.08
316.218	44824.27
316.283	44784.09
316.348	44748.38
316.413	44761.17
316.479	44732.13
316.544	44630.12
316.609	44537.63
316.674	44410.21
316.739	44290.41
316.804	44195.5
316.869	44070.08
316.934	43918.18
316.999	43800.67
317.064	43615.39
317.129	43453.79
317.194	43320.14
317.259	43137.58
317.324	42956.55
317.389	42796.08
317.454	42643.77
317.518	42501.17
317.583	42385.81
317.648	42278.31
317.713	42127.4
317.778	41896.98
317.843	41759.74
317.908	41600.65
317.973	41434
318.038	41291.39
318.103	41138.83
318.168	40976.88
318.233	40826.6
318.297	40629.14
318.362	40454.34
318.427	40260.39
318.492	40122.03
318.557	39902.72
318.622	39750.63
318.687	39604.02
318.751	39418.51
318.816	39257.7
318.881	39080.98
318.946	38824.15
319.011	38602.66
319.075	38391.16
319.14	38202.66
319.205	37976.88
319.27	37788.35
319.335	37559.61
319.399	37355.29
319.464	37174.6
319.529	36931.59
319.594	36725.69
319.658	36538.87
319.723	36325.95
319.788	36162.48
319.853	35900.11
319.917	35712.61
319.982	35452.49
320.047	35255.13
320.112	35074.82
320.176	34804.99
320.241	34599.09
320.306	34421.49
320.37	34195.84
320.435	34014.35
320.5	33831.67
320.564	33607.39
320.629	33378.9
320.694	33179.23
320.758	32943.29
320.823	32698.07
320.888	32514.03
320.952	32249.38
321.017	32013.05
321.082	31782.78
321.146	31569.44
321.211	31355.97
321.275	31132.23
321.34	30893.17
321.405	30642.75
321.469	30390.89
321.534	30161.16
321.598	29901.41
321.663	29693.17
321.727	29486.4
321.792	29225.95
321.857	28983.16
321.921	28750.57
321.986	28518.04
322.05	28231.47
322.115	28010.65
322.179	27777.56
322.244	27481.51
322.308	27267.26
322.373	27016.39
322.437	26776.98
322.502	26583.48
322.566	26335.47
322.631	26110.43
322.695	25877.25
322.76	25639.63
322.824	25406.27
322.889	25159.8
322.953	24903.66
323.018	24569.89
323.082	24259.65
323.146	23977.87
323.211	23692.03
323.275	23449.66
323.34	23179.96
323.404	22950.65
323.468	22685.81
323.533	22431.62
323.597	22183.03
323.662	21902.1
323.726	21677.3
323.79	21414.05
323.855	21081.72
323.919	20802.88
323.983	20544.52
324.048	20156.44
324.112	20326.23
324.177	19531.31
324.241	18470.99
324.305	17426.49
324.37	16411.51
324.434	15416.09
324.498	15144.11
324.562	14839.4
324.627	14484.81
324.691	14151.32
324.755	13772.91
324.82	13336.15
324.884	12863.31
324.948	12387.39
325.012	11816.64
325.077	11101.55
