Data from 20250701_urea_2M_exp3_MAYP1162681_20-19-51-565.txt Node
Date: Tue Jul 01 20:19:51 BST 2025
User: adleo
Spectrometer: MAYP116268
Trigger mode: 0
Integration Time (sec): 4.000000E0
Scans to average: 1
Electric dark correction enabled: true
Nonlinearity correction enabled: true
Boxcar width: 10
XAxis mode: Wavelengths
Number of Pixels in Spectrum: 2068
>>>>>Begin Spectral Data<<<<<
179.565	3984.11
179.642	4195.41
179.718	4350.62
179.795	4490.21
179.871	4607.03
179.948	4669.7
180.024	4744.9
180.101	4831.18
180.177	4882.55
180.254	4972.37
180.33	5057.52
180.407	5349.65
180.483	5658.33
180.56	5973.03
180.636	6260.7
180.712	6216.13
180.789	6250.6
180.865	6294.54
180.942	6326.02
181.018	6370.28
181.095	6418.89
181.171	6437.23
181.248	6435.88
181.324	6490.78
181.4	6523
181.477	6570.02
181.553	6625.16
181.63	6703.11
181.706	6759.7
181.782	6794.83
181.859	6789.84
181.935	6809.53
182.011	6795.56
182.088	6854.84
182.164	6926.03
182.24	6974.71
182.317	7007.66
182.393	7002.04
182.469	7051.23
182.546	7100.52
182.622	7113.49
182.698	7099.65
182.775	7141.46
182.851	7190.03
182.927	7167.93
183.003	7152.27
183.08	7125.41
183.156	7156.4
183.232	7144.96
183.308	7103.02
183.385	7131.6
183.461	7193.88
183.537	7194.17
183.613	7236.89
183.69	7205.8
183.766	7162.23
183.842	7189.58
183.918	7207.12
183.995	7255.18
184.071	7267.82
184.147	7252.01
184.223	7212.73
184.299	7254.07
184.375	7213.56
184.452	7236.93
184.528	7368.7
184.604	7405.89
184.68	7453.03
184.756	7479.48
184.832	7493.61
184.908	7515.04
184.985	7511.72
185.061	7454.86
185.137	7489.34
185.213	7444.36
185.289	7453.44
185.365	7427.78
185.441	7421.39
185.517	7472.18
185.593	7455.35
185.669	7446.84
185.745	7487.95
185.822	7547.75
185.898	7521.5
185.974	7557.97
186.05	7533.83
186.126	7459.55
186.202	7434.33
186.278	7418.56
186.354	7385.48
186.43	7412.32
186.506	7406.79
186.582	7406.07
186.658	7427.93
186.734	7348.7
186.81	7363.06
186.886	7369.11
186.962	7418.08
187.038	7410.34
187.114	7382.11
187.19	7410.86
187.266	7376.11
187.341	7370.29
187.417	7346.12
187.493	7344.73
187.569	7354.53
187.645	7332.28
187.721	7287.85
187.797	7317.36
187.873	7331.06
187.949	7309.06
188.025	7285.39
188.101	7298.37
188.176	7314.13
188.252	7299.33
188.328	7335.35
188.404	7334.19
188.48	7314.54
188.556	7292.48
188.632	7283.83
188.707	7285.56
188.783	7275.65
188.859	7261
188.935	7216.83
189.011	7247.25
189.086	7221.45
189.162	7193.23
189.238	7186.22
189.314	7181.27
189.39	7154.5
189.465	7128.88
189.541	7192.53
189.617	7137.22
189.693	7110.7
189.768	7126.38
189.844	7217.6
189.92	7186.91
189.996	7222.05
190.071	7262.46
190.147	7248.72
190.223	7285.55
190.298	7253.58
190.374	7208.83
190.45	7249.62
190.526	7282.16
190.601	7263.12
190.677	7272.15
190.753	7371.39
190.828	7382.34
190.904	7432.82
190.98	7492.06
191.055	7532.1
191.131	7493.92
191.207	7566.74
191.282	7606.28
191.358	7569.99
191.433	7516.16
191.509	7566.31
191.585	7555.2
191.66	7558.71
191.736	7594.33
191.811	7558.08
191.887	7619.49
191.963	7698.97
192.038	7716.66
192.114	7721.03
192.189	7730.5
192.265	7719.98
192.34	7639.4
192.416	7635.6
192.491	7626.89
192.567	7631.27
192.642	7637.24
192.718	7639.45
192.793	7594.01
192.869	7579.06
192.944	7590.69
193.02	7618.3
193.095	7629.36
193.171	7649.17
193.246	7641.95
193.322	7630.22
193.397	7639.6
193.473	7586.26
193.548	7523.93
193.624	7543.56
193.699	7540.29
193.775	7600.32
193.85	7601.9
193.925	7627.82
194.001	7630.66
194.076	7597.19
194.152	7561.94
194.227	7535.25
194.302	7500.08
194.378	7514.45
194.453	7504.07
194.529	7550.95
194.604	7501.19
194.679	7480.08
194.755	7409.78
194.83	7461.98
194.905	7453.66
194.981	7484.82
195.056	7459.07
195.131	7479.3
195.207	7478.19
195.282	7443.2
195.357	7367.84
195.433	7425.96
195.508	7390.57
195.583	7414.46
195.659	7465.24
195.734	7492.56
195.809	7492.22
195.884	7527.29
195.96	7529.84
196.035	7582.48
196.11	7560.5
196.185	7597.09
196.261	7611.89
196.336	7724.63
196.411	7673.49
196.486	7695.9
196.561	7667.91
196.637	7704.15
196.712	7762.74
196.787	7772.46
196.862	7830.1
196.937	7871.78
197.013	7888.05
197.088	7923.58
197.163	8003.16
197.238	8065.36
197.313	8061.17
197.388	8108.17
197.464	8215.04
197.539	8249.23
197.614	8227.11
197.689	8275.75
197.764	8334.46
197.839	8405.04
197.914	8382.03
197.989	8457.72
198.065	8499.43
198.14	8679.74
198.215	8772.08
198.29	8814.55
198.365	8856.57
198.44	8891.65
198.515	8997.71
198.59	9054.99
198.665	9145.25
198.74	9172.27
198.815	9174.97
198.89	9257.66
198.965	9370.07
199.04	9354.08
199.115	9418.1
199.19	9569.89
199.265	9576.25
199.34	9611.02
199.415	9733.72
199.49	9808.91
199.565	9837.95
199.64	9929.89
199.715	9916.78
199.79	9935.47
199.865	9956.04
199.94	9952.47
200.015	10062.01
200.09	10071.55
200.165	10092.16
200.24	10120.01
200.315	10256.2
200.39	10310.4
200.464	10330.72
200.539	10326.58
200.614	10381.1
200.689	10458.67
200.764	10483.2
200.839	10547.06
200.914	10559.48
200.989	10514.23
201.063	10568.39
201.138	10516.29
201.213	10511.23
201.288	10443.54
201.363	10466.77
201.438	10471.1
201.512	10528.32
201.587	10467.66
201.662	10483.36
201.737	10524.22
201.812	10552.94
201.886	10438.09
201.961	10473.66
202.036	10434.45
202.111	10428.81
202.186	10330.73
202.26	10275.61
202.335	10193.94
202.41	10173.47
202.485	10115.73
202.559	10050.65
202.634	9953.16
202.709	9984.93
202.784	9915.92
202.858	9914.95
202.933	9849.36
203.008	9818.24
203.082	9745.71
203.157	9743.21
203.232	9586.37
203.306	9507.76
203.381	9390.53
203.456	9308.67
203.53	9222.56
203.605	9148.93
203.68	9060.46
203.754	9039.72
203.829	8984.3
203.904	8912.92
203.978	8863.03
204.053	8879.98
204.127	8832.47
204.202	8826.26
204.277	8757.73
204.351	8733.81
204.426	8711.71
204.5	8681.29
204.575	8560.01
204.65	8593.9
204.724	8558.65
204.799	8588.95
204.873	8581.92
204.948	8575.76
205.022	8529.77
205.097	8499
205.171	8547.6
205.246	8578.6
205.32	8570.18
205.395	8564.65
205.469	8528.97
205.544	8557.18
205.618	8496.64
205.693	8542.07
205.767	8498.19
205.842	8578.86
205.916	8559.09
205.991	8514.81
206.065	8534.98
206.14	8590.51
206.214	8574.81
206.289	8549.87
206.363	8592.8
206.438	8597.13
206.512	8624.33
206.586	8691.25
206.661	8723.13
206.735	8643.96
206.81	8650.17
206.884	8702.13
206.958	8654.79
207.033	8721.46
207.107	8745.49
207.181	8855.02
207.256	8825.27
207.33	8894.52
207.405	8930.8
207.479	8996.93
207.553	9028.06
207.628	8968.99
207.702	9010.66
207.776	8986.31
207.851	9000.36
207.925	9057.77
207.999	9046.79
208.073	9034.42
208.148	9046.26
208.222	9001.38
208.296	9118.35
208.371	9175.44
208.445	9212.03
208.519	9323.03
208.593	9365.88
208.668	9348.74
208.742	9360.16
208.816	9372.38
208.89	9416.79
208.965	9419.73
209.039	9451.95
209.113	9517.63
209.187	9592.65
209.261	9573.92
209.336	9646.06
209.41	9717.38
209.484	9712.28
209.558	9791.36
209.632	9848.57
209.707	9887.96
209.781	9962.42
209.855	10022.3
209.929	10076.91
210.003	10098.2
210.077	10087.94
210.151	10251.59
210.226	10379.14
210.3	10470.23
210.374	10551.43
210.448	10566.46
210.522	10603.9
210.596	10638.45
210.67	10666.49
210.744	10830.8
210.818	10948.37
210.892	11023.3
210.966	10999.94
211.041	11053.86
211.115	11044.17
211.189	11122.04
211.263	11182.9
211.337	11207.33
211.411	11246.32
211.485	11227.81
211.559	11267.51
211.633	11275.7
211.707	11167.78
211.781	11187.64
211.855	11061.14
211.929	11033.58
212.003	10968.32
212.077	11002.44
212.151	11041.53
212.225	11070.15
212.299	11032.41
212.373	10992.22
212.447	10970.63
212.52	11079.25
212.594	11090.91
212.668	11125.85
212.742	11071.39
212.816	11050.43
212.89	11022.1
212.964	11014.72
213.038	11015.16
213.112	11059.21
213.186	11113.41
213.26	11030.18
213.333	10869.15
213.407	10881.86
213.481	10886.01
213.555	10919.86
213.629	10863.71
213.703	10798.85
213.777	10793.65
213.85	10717.7
213.924	10826.04
213.998	10811.97
214.072	10769.31
214.146	10709.7
214.219	10685.27
214.293	10667.98
214.367	10660.84
214.441	10685.37
214.515	10639.11
214.588	10549.01
214.662	10409.35
214.736	10313.48
214.81	10330.57
214.883	10341.75
214.957	10287.04
215.031	10222.27
215.105	10125.95
215.178	10059.76
215.252	10016.17
215.326	9897.83
215.4	9802.21
215.473	9605.51
215.547	9516.87
215.621	9447.59
215.694	9441.13
215.768	9336.87
215.842	9258.68
215.915	9178.96
215.989	9055.44
216.063	8988.83
216.136	8962.15
216.21	8935.35
216.284	8947.48
216.357	8914.74
216.431	8869.06
216.504	8867.08
216.578	8929.97
216.652	8935.74
216.725	8907.63
216.799	8909.99
216.873	8895.64
216.946	8902.09
217.02	8866.35
217.093	8834.44
217.167	8735.53
217.24	8650.41
217.314	8612.5
217.387	8562.44
217.461	8513.88
217.535	8539.43
217.608	8472.98
217.682	8444.96
217.755	8459.16
217.829	8394.9
217.902	8378.73
217.976	8361.27
218.049	8308.63
218.123	8218.85
218.196	8223.18
218.27	8186.51
218.343	8110.9
218.417	8102.87
218.49	8081.7
218.563	8122.83
218.637	8133.8
218.71	8204.06
218.784	8232.12
218.857	8269.97
218.931	8294.3
219.004	8308.59
219.077	8329.39
219.151	8351.61
219.224	8339.72
219.298	8330.63
219.371	8385.25
219.444	8343.02
219.518	8348.32
219.591	8370.68
219.665	8481.52
219.738	8494.22
219.811	8472.53
219.885	8520.02
219.958	8554.87
220.031	8559.24
220.105	8585.67
220.178	8587.74
220.251	8561.55
220.325	8584.23
220.398	8601.51
220.471	8625.51
220.544	8660.21
220.618	8643.6
220.691	8668.15
220.764	8690.62
220.838	8723.4
220.911	8709.39
220.984	8801.2
221.057	8834.89
221.131	8856.2
221.204	8758.79
221.277	8827.01
221.35	8958.57
221.424	8955
221.497	8965.07
221.57	8994.32
221.643	9026.92
221.716	9079.36
221.79	9084.99
221.863	9095.77
221.936	9104.87
222.009	9115.75
222.082	9146.76
222.155	9151.67
222.229	9225.88
222.302	9256.45
222.375	9260.45
222.448	9301.62
222.521	9303.69
222.594	9304.51
222.667	9279.97
222.74	9337.35
222.814	9334.7
222.887	9316.11
222.96	9377.41
223.033	9433.57
223.106	9458.12
223.179	9487.6
223.252	9493.38
223.325	9527.27
223.398	9545.48
223.471	9575.62
223.544	9599.26
223.617	9612.65
223.69	9636.24
223.763	9590.53
223.837	9611.29
223.91	9643.02
223.983	9586.45
224.056	9552.7
224.129	9588.53
224.202	9647.78
224.275	9634.78
224.348	9602.46
224.42	9568.66
224.493	9505.24
224.566	9472.1
224.639	9491.36
224.712	9463.61
224.785	9452.48
224.858	9443.62
224.931	9425.08
225.004	9379.34
225.077	9380.25
225.15	9284.99
225.223	9284.99
225.296	9375.8
225.369	9317.01
225.442	9282.97
225.514	9305.93
225.587	9332.21
225.66	9325.71
225.733	9326.77
225.806	9334.71
225.879	9333.7
225.952	9305.25
226.025	9354.61
226.097	9408.61
226.17	9404.13
226.243	9334.09
226.316	9330.43
226.389	9332.55
226.461	9354.65
226.534	9381.9
226.607	9372.66
226.68	9458.77
226.753	9451.45
226.825	9360.59
226.898	9425.59
226.971	9430.84
227.044	9449.09
227.117	9454.43
227.189	9476.16
227.262	9510.26
227.335	9532.75
227.407	9519.99
227.48	9548.06
227.553	9566.31
227.626	9543.48
227.698	9546.03
227.771	9588.14
227.844	9567.68
227.916	9587.52
227.989	9542.68
228.062	9537.92
228.134	9631.7
228.207	9633.63
228.28	9625.88
228.352	9635.31
228.425	9639.89
228.498	9684.11
228.57	9660.08
228.643	9719.47
228.716	9721.21
228.788	9708.01
228.861	9702.9
228.934	9780.01
229.006	9795.56
229.079	9792.14
229.151	9780.39
229.224	9745.19
229.296	9778.95
229.369	9888.22
229.442	9938.52
229.514	9920.94
229.587	9974.21
229.659	9893.96
229.732	9906.34
229.804	9946.84
229.877	10035.01
229.949	10071.53
230.022	10127.04
230.094	10135.22
230.167	10123.27
230.239	10080.12
230.312	10068.27
230.384	10135.83
230.457	10128.21
230.529	10133.27
230.602	10139
230.674	10144.25
230.747	10191.92
230.819	10221.02
230.892	10096.69
230.964	10097.12
231.037	10132.7
231.109	10116.8
231.181	10162.17
231.254	10128.79
231.326	10116.51
231.399	10087.4
231.471	10053.58
231.544	9974.13
231.616	10021.37
231.688	10024.79
231.761	10014.78
231.833	10001.63
231.905	9915.64
231.978	9908.75
232.05	9891.17
232.122	9893.39
232.195	9875.13
232.267	9911.12
232.339	9881.58
232.412	9951.95
232.484	9926.84
232.556	9900.17
232.629	9980.49
232.701	9994.08
232.773	10005.01
232.846	9996.06
232.918	10006.66
232.99	10033.83
233.062	10080.7
233.135	10089.62
233.207	10059.56
233.279	10109.83
233.351	10155.06
233.424	10160.11
233.496	10139.93
233.568	10233.2
233.64	10192.55
233.713	10206.23
233.785	10210.13
233.857	10229.78
233.929	10176.56
234.001	10246.1
234.074	10319.45
234.146	10239.89
234.218	10240.18
234.29	10243.89
234.362	10234.98
234.434	10181.84
234.507	10138.05
234.579	10077.79
234.651	10058.66
234.723	10083.66
234.795	10096.14
234.867	10086.94
234.939	10149.57
235.012	10169.99
235.084	10169.7
235.156	10213.82
235.228	10202.02
235.3	10175.24
235.372	10189.21
235.444	10252.84
235.516	10166.44
235.588	10169.91
235.66	10182.48
235.732	10155.45
235.804	10360.62
235.876	10404.74
235.948	10477.74
236.02	10493.35
236.092	10516.95
236.164	10534.05
236.236	10542.72
236.308	10544.99
236.38	10573.22
236.452	10557.22
236.524	10576.64
236.596	10646.24
236.668	10679.49
236.74	10704.39
236.812	10737.49
236.884	10775.27
236.956	10785.15
237.028	10784.53
237.1	10768.05
237.172	10855.27
237.244	10945.09
237.316	10823.09
237.388	10807.58
237.46	10782.37
237.532	10849.4
237.604	10833.89
237.675	10916.05
237.747	10963.33
237.819	10953.45
237.891	10961.5
237.963	10945.36
238.035	10945.84
238.107	10826.61
238.178	10892.35
238.25	10893.65
238.322	10992.27
238.394	10939.07
238.466	10939.74
238.538	10985.23
238.609	11036.45
238.681	10969.99
238.753	10940.54
238.825	10963.63
238.897	10995.42
238.968	11082.61
239.04	11066.95
239.112	11196.19
239.184	11146.89
239.255	11141.92
239.327	11180.32
239.399	11202.59
239.471	11256.65
239.542	11290.91
239.614	11368.45
239.686	11279.48
239.758	11343.43
239.829	11305.25
239.901	11380.62
239.973	11405.25
240.044	11443.27
240.116	11456.24
240.188	11476.57
240.259	11496.33
240.331	11488.04
240.403	11535.51
240.474	11482.54
240.546	11468.32
240.618	11396.75
240.689	11401.38
240.761	11428.42
240.833	11498.3
240.904	11493.19
240.976	11498.54
241.048	11522.55
241.119	11556.72
241.191	11611.95
241.262	11680.74
241.334	11679.92
241.405	11686.23
241.477	11687.05
241.549	11699.1
241.62	11720.12
241.692	11772.36
241.763	11834.59
241.835	11850.06
241.906	11861.34
241.978	11834.88
242.049	11912.67
242.121	11980.97
242.192	12059.34
242.264	12022.85
242.335	11976.87
242.407	12033.02
242.478	12037.46
242.55	12062.91
242.621	12052.45
242.693	12048.98
242.764	12037.6
242.836	12050.47
242.907	12083.97
242.979	12117.91
243.05	12143.02
243.122	12172.13
243.193	12171.56
243.264	12090.87
243.336	12095.78
243.407	12142.11
243.479	12227.28
243.55	12250.37
243.622	12269.22
243.693	12265.02
243.764	12339.93
243.836	12318.05
243.907	12303.78
243.978	12305.95
244.05	12327.74
244.121	12278.33
244.192	12326.77
244.264	12282.47
244.335	12289.46
244.407	12236.73
244.478	12256.01
244.549	12243.72
244.62	12195.61
244.692	12191.61
244.763	12249.31
244.834	12244.44
244.906	12213.01
244.977	12232.25
245.048	12285.32
245.119	12262.86
245.191	12232.88
245.262	12159.08
245.333	12241.64
245.405	12262.18
245.476	12296.98
245.547	12320.31
245.618	12380.51
245.689	12395.6
245.761	12428.53
245.832	12444.29
245.903	12491.29
245.974	12519.73
246.045	12535.15
246.117	12629.01
246.188	12611.65
246.259	12587.36
246.33	12604.95
246.401	12617.68
246.473	12587.6
246.544	12576.08
246.615	12638.94
246.686	12648.67
246.757	12735.24
246.828	12707.24
246.899	12783.98
246.97	12754.92
247.042	12738.43
247.113	12780.71
247.184	12873.17
247.255	12874.27
247.326	12896.35
247.397	12911.83
247.468	12929.9
247.539	12946.1
247.61	12896.83
247.681	12948.65
247.752	13010.55
247.823	12990.78
247.894	13019.32
247.965	12990.3
248.037	12968.51
248.108	12906.43
248.179	12917.08
248.25	12911.15
248.321	12941.08
248.392	12891.19
248.463	12980.46
248.534	12981.57
248.605	13000.04
248.675	12973.67
248.746	13000.13
248.817	13018.4
248.888	13034.94
248.959	12969.38
249.03	12994.78
249.101	13000.71
249.172	12982.97
249.243	12905.99
249.314	12972.66
249.385	12977.1
249.456	13011.51
249.527	13012.96
249.598	13046.85
249.669	13048.73
249.739	13060.35
249.81	13084.35
249.881	13045.31
249.952	13038.8
250.023	13035.37
250.094	12981.05
250.165	12946.63
250.235	12935.39
250.306	12941.37
250.377	12907.48
250.448	12945.66
250.519	12874.85
250.59	12941.08
250.66	12945.66
250.731	13022.45
250.802	13017
250.873	13033.2
250.944	13052.1
251.014	13034.31
251.085	13134.1
251.156	13165.14
251.227	13219.61
251.297	13271
251.368	13320.22
251.439	13362.88
251.51	13422.42
251.58	13411.91
251.651	13404.73
251.722	13461.71
251.792	13409.11
251.863	13414.95
251.934	13478.34
252.005	13605.6
252.075	13611.48
252.146	13665.71
252.217	13720.28
252.287	13763.76
252.358	13776.44
252.429	13856.13
252.499	13852.42
252.57	13864.47
252.641	13908
252.711	13909.78
252.782	13864.66
252.852	13952.68
252.923	13959.14
252.994	13970.76
253.064	14026.82
253.135	14012.55
253.205	13990.67
253.276	14074.59
253.347	14142.42
253.417	14113.06
253.488	14089.2
253.558	14074.4
253.629	14070.88
253.699	14079.56
253.77	14115.33
253.841	14108.19
253.911	14120.97
253.982	14142.37
254.052	14168.74
254.123	14178.81
254.193	14186.38
254.264	14333.06
254.334	14293.1
254.405	14245.71
254.475	14216.21
254.546	14225.13
254.616	14288.28
254.687	14322.8
254.757	14341.5
254.827	14346.32
254.898	14375.87
254.968	14385.37
255.039	14372.59
255.109	14410.68
255.18	14377.08
255.25	14301.63
255.321	14331.76
255.391	14287.75
255.461	14380.64
255.532	14294.75
255.602	14289.54
255.673	14230.1
255.743	14192.75
255.813	14123.04
255.884	14181.8
255.954	14211.02
256.024	14274.26
256.095	14285.64
256.165	14250.54
256.235	14275.46
256.306	14261.77
256.376	14314.89
256.446	14360.45
256.517	14398.77
256.587	14441
256.657	14467.51
256.728	14499.91
256.798	14517.02
256.868	14513.93
256.938	14480.38
257.009	14521.65
257.079	14555.01
257.149	14661.25
257.219	14593.81
257.29	14632.76
257.36	14578.97
257.43	14625.96
257.5	14560.84
257.571	14543.05
257.641	14577.57
257.711	14544.4
257.781	14578.73
257.852	14591.31
257.922	14518.52
257.992	14520.69
258.062	14517.79
258.132	14567.35
258.202	14566.05
258.273	14572.36
258.343	14649.15
258.413	14637.72
258.483	14645.58
258.553	14615.94
258.623	14593.47
258.693	14629.82
258.764	14701.31
258.834	14768.6
258.904	14786.77
258.974	14783.69
259.044	14802.97
259.114	14831.65
259.184	14854.79
259.254	14859.47
259.324	14802.01
259.394	14864.77
259.464	14951.1
259.535	14964.74
259.605	14963.05
259.675	14957.99
259.745	14999.93
259.815	14978.86
259.885	14984.02
259.955	15110.97
260.025	15110.4
260.095	15121.05
260.165	15151.9
260.235	15216.05
260.305	15196.96
260.375	15166.93
260.445	15255.53
260.515	15322.39
260.585	15371.46
260.655	15390.11
260.725	15440.48
260.795	15484.35
260.865	15559.54
260.934	15522.81
261.004	15548.98
261.074	15551.63
261.144	15615.84
261.214	15656.81
261.284	15653.34
261.354	15690.41
261.424	15645.25
261.494	15716.25
261.564	15721.27
261.634	15743.34
261.703	15679.86
261.773	15710.43
261.843	15745.61
261.913	15737.23
261.983	15673.02
262.053	15704.74
262.123	15702.33
262.192	15659.57
262.262	15706.13
262.332	15645.35
262.402	15679.67
262.472	15681.36
262.541	15617.39
262.611	15668.39
262.681	15642.6
262.751	15687.09
262.821	15686.7
262.89	15652.1
262.96	15680.73
263.03	15762.09
263.1	15787.82
263.169	15802.14
263.239	15836.51
263.309	15903.02
263.379	15946.45
263.448	15973.82
263.518	15989.2
263.588	16000.96
263.657	16071.38
263.727	16105.94
263.797	16120.11
263.867	16117.51
263.936	16085.74
264.006	16152.99
264.076	16141.13
264.145	16135.63
264.215	16120.45
264.285	16169.57
264.354	16114.52
264.424	16097.84
264.494	16050.37
264.563	16036.54
264.633	16122.43
264.702	16143.97
264.772	16083.87
264.842	16070.23
264.911	16104.4
264.981	16067.2
265.05	16084.26
265.12	16083.58
265.19	16098.67
265.259	16152.65
265.329	16200.7
265.398	16231.6
265.468	16331.17
265.537	16330.35
265.607	16371.66
265.676	16418.46
265.746	16442.6
265.815	16515.97
265.885	16526.09
265.955	16506.81
266.024	16508.83
266.094	16435.38
266.163	16506.76
266.232	16579.82
266.302	16593.51
266.371	16616.79
266.441	16641.08
266.51	16685.23
266.58	16686.33
266.649	16668.84
266.719	16713.8
266.788	16734.05
266.858	16800.84
266.927	16727.83
266.996	16752.55
267.066	16778.87
267.135	16744.65
267.205	16784.55
267.274	16804.17
267.343	16862.15
267.413	16877.33
267.482	16946.25
267.552	17016.66
267.621	16961.92
267.69	16909
267.76	16931.02
267.829	16956.33
267.898	16974.5
267.968	16955.31
268.037	17001.87
268.106	17057.97
268.176	17024.09
268.245	17031.22
268.314	17031.6
268.384	17096.33
268.453	17121.34
268.522	17145.2
268.592	17215.71
268.661	17205.35
268.73	17239.85
268.799	17222.41
268.869	17315.95
268.938	17263.37
269.007	17247.18
269.076	17267.95
269.146	17333.11
269.215	17369.5
269.284	17442.7
269.353	17442.51
269.422	17462.27
269.492	17454.27
269.561	17363.76
269.63	17406.65
269.699	17402.84
269.768	17425.06
269.838	17450.75
269.907	17487.37
269.976	17461.49
270.045	17410.55
270.114	17451.03
270.183	17462.7
270.253	17499.52
270.322	17452.48
270.391	17481.01
270.46	17554.07
270.529	17603.51
270.598	17640.72
270.667	17645.63
270.736	17624.14
270.806	17652.57
270.875	17711.32
270.944	17723.42
271.013	17867.85
271.082	17893.34
271.151	17932.47
271.22	17885.24
271.289	17896.47
271.358	17908.28
271.427	17948.33
271.496	17975.94
271.565	17967.03
271.634	17983.46
271.703	18121.05
271.772	18185.82
271.841	18206.39
271.91	18176.03
271.979	18206.44
272.048	18179.74
272.117	18226.97
272.186	18219.07
272.255	18268.51
272.324	18311.64
272.393	18353.81
272.462	18335.16
272.531	18351.98
272.6	18367.45
272.669	18444.31
272.738	18452.46
272.807	18488.07
272.876	18473.8
272.945	18624.11
273.013	18691.91
273.082	18757.4
273.151	18652.78
273.22	18684.3
273.289	18714.27
273.358	18807.14
273.427	18810.99
273.496	18861.93
273.564	18902.94
273.633	18964.48
273.702	18956.09
273.771	18963.8
273.84	18990.98
273.909	19029.29
273.977	19072.66
274.046	19086.54
274.115	19146.54
274.184	19142.3
274.253	19164.13
274.322	19247.16
274.39	19173.96
274.459	19162.2
274.528	19117.53
274.597	19144.85
274.665	19175.11
274.734	19239.78
274.803	19244.46
274.872	19268.22
274.94	19269.52
275.009	19504.53
275.078	19503.37
275.147	19536.72
275.215	19563.23
275.284	19627.9
275.353	19642.45
275.421	19603.42
275.49	19705.3
275.559	19714.69
275.627	19745.92
275.696	19765.44
275.765	19797.39
275.833	19825.58
275.902	19877.67
275.971	19958.49
276.039	20057.33
276.108	20115.93
276.177	20149.13
276.245	20154.68
276.314	20181.33
276.383	20249.61
276.451	20078.98
276.52	20136.81
276.588	20226.4
276.657	20293.59
276.725	20303.9
276.794	20355.37
276.863	20444.96
276.931	20408.67
277	20477.54
277.068	20558.11
277.137	20661.01
277.205	20693.93
277.274	20805.3
277.342	20886.85
277.411	20870.32
277.48	20856.78
277.548	20869.84
277.617	20922.47
277.685	20945.22
277.754	21007.48
277.822	21017.8
277.89	21105
277.959	21122.88
278.027	21103.69
278.096	21110.64
278.164	21255.2
278.233	21265.95
278.301	21275.54
278.37	21335.02
278.438	21322.1
278.507	21362.06
278.575	21317.71
278.643	21357.86
278.712	21325.42
278.78	21306.09
278.849	21384.17
278.917	21471.85
278.985	21500.96
279.054	21550.66
279.122	21641.71
279.191	21676.61
279.259	21707.6
279.327	21660.07
279.396	21753.05
279.464	21785.59
279.532	21853.94
279.601	21877.19
279.669	21914.88
279.737	22003.58
279.806	22059.26
279.874	22149.31
279.942	22198.38
280.011	22227.25
280.079	22288.86
280.147	22394.43
280.215	22457.29
280.284	22488
280.352	22477.92
280.42	22552.17
280.488	22564.7
280.557	22577.24
280.625	22636.35
280.693	22691.88
280.761	22756.72
280.83	22742.4
280.898	22826.23
280.966	22801.07
281.034	22732.84
281.102	22724.11
281.171	22748.46
281.239	22821.43
281.307	22844.09
281.375	22849.92
281.443	22986.72
281.512	23022.45
281.58	23088.63
281.648	23076.96
281.716	23116.06
281.784	23168.18
281.852	23175.65
281.92	23222
281.989	23316.86
282.057	23302.2
282.125	23505.37
282.193	23550.17
282.261	23602.19
282.329	23624.71
282.397	23687.01
282.465	23742.46
282.533	23838.8
282.601	23842.22
282.67	23800.74
282.738	23817.53
282.806	23897.38
282.874	23887.88
282.942	23941.47
283.01	23968.3
283.078	24041.55
283.146	24083.7
283.214	24154.37
283.282	24215.58
283.35	24301.07
283.418	24311.25
283.486	24368.4
283.554	24256.61
283.622	24301.53
283.69	24339.82
283.758	24378.22
283.826	24438.37
283.894	24523.28
283.962	24642.42
284.03	24744.79
284.098	24804.36
284.165	24829.78
284.233	24877.6
284.301	24912
284.369	24928.35
284.437	24943.7
284.505	24975.88
284.573	25071.75
284.641	25078.55
284.709	25151.96
284.777	25133.62
284.845	25209.3
284.912	25283.27
284.98	25344.94
285.048	25369.84
285.116	25442.95
285.184	25534.07
285.252	25575.86
285.319	25562.4
285.387	25569.5
285.455	25554.58
285.523	25633.5
285.591	25674.17
285.659	25718.29
285.726	25807.4
285.794	25809.96
285.862	25852.15
285.93	25891.53
285.997	25919.43
286.065	25957.8
286.133	25969.29
286.201	26011.19
286.269	26006.45
286.336	26017.85
286.404	26048.02
286.472	26132.32
286.539	26106.11
286.607	26100.99
286.675	26157.24
286.743	26227.43
286.81	26256.94
286.878	26351.08
286.946	26361.9
287.013	26405.29
287.081	26443.49
287.149	26438.32
287.216	26548.65
287.284	26568.35
287.352	26620.78
287.419	26654.01
287.487	26747.65
287.555	26810.59
287.622	26846.86
287.69	26910.22
287.758	27002.47
287.825	27029.46
287.893	27030.57
287.96	27102.99
288.028	27189.32
288.096	27238.11
288.163	27302.02
288.231	27305.16
288.298	27353.52
288.366	27446.96
288.433	27479.9
288.501	27510.04
288.569	27561.2
288.636	27589.9
288.704	27690.55
288.771	27766.84
288.839	27775.1
288.906	27805.3
288.974	27884.15
289.041	27918.79
289.109	27923.09
289.176	27987.86
289.244	28048.83
289.311	28140.85
289.379	28217.15
289.446	28267.96
289.514	28320.65
289.581	28371.11
289.649	28433.3
289.716	28472.32
289.783	28489.82
289.851	28609.29
289.918	28652.2
289.986	28730.76
290.053	28787.52
290.121	28824.8
290.188	28875.52
290.255	29024.63
290.323	29040.3
290.39	29062.6
290.458	29138.29
290.525	29251.33
290.592	29288.33
290.66	29346.35
290.727	29380.45
290.794	29468.77
290.862	29516.8
290.929	29573.54
290.996	29610.88
291.064	29690.77
291.131	29789.47
291.198	29878.24
291.266	29919.6
291.333	29975.65
291.4	30037.29
291.468	30143.51
291.535	30177.81
291.602	30233.74
291.669	30253.54
291.737	30323.24
291.804	30358.9
291.871	30462.79
291.938	30529.44
292.006	30660.27
292.073	30750.08
292.14	30826.7
292.207	30850.7
292.275	30885.12
292.342	30955.11
292.409	31081.91
292.476	31206.84
292.543	31225.48
292.611	31266.34
292.678	31380.85
292.745	31509.62
292.812	31592.29
292.879	31613.5
292.946	31671.73
293.014	31765.44
293.081	31852.76
293.148	31938.64
293.215	32038.7
293.282	32067.08
293.349	32142.65
293.416	32118.18
293.484	32201.79
293.551	32283.12
293.618	32388.76
293.685	32517.72
293.752	32539.47
293.819	32575.96
293.886	32587.78
293.953	32645.28
294.02	32738.6
294.087	32794.57
294.154	32806.83
294.221	32901.41
294.288	32966.04
294.356	33071.33
294.423	33131.86
294.49	33136.42
294.557	33227.92
294.624	33257.92
294.691	33379.23
294.758	33429.69
294.825	33513.29
294.892	33536.07
294.959	33587.03
295.026	33649.42
295.093	33680.55
295.16	33743.64
295.226	33797.11
295.293	33913.01
295.36	33976.17
295.427	34062.1
295.494	34153.24
295.561	34246.75
295.628	34374.28
295.695	34473.88
295.762	34537.12
295.829	34625.98
295.896	34740.99
295.963	34829.22
296.03	34908.41
296.096	34969.92
296.163	35055.88
296.23	35158.48
296.297	35254.94
296.364	35295
296.431	35368.79
296.498	35417.97
296.564	35550.05
296.631	35625.29
296.698	35637.08
296.765	35769.87
296.832	35781.9
296.899	35777.73
296.965	35899.14
297.032	35877.59
297.099	35995.35
297.166	36086.1
297.233	36131.47
297.299	36161.65
297.366	36206.69
297.433	36277.05
297.5	36353.7
297.566	36405.1
297.633	36461.84
297.7	36531.2
297.767	36602.43
297.833	36680.64
297.9	36742.46
297.967	36751.05
298.033	36837.85
298.1	36993.41
298.167	37015.3
298.234	37095.59
298.3	37190.48
298.367	37218.06
298.434	37290.65
298.5	37295.12
298.567	37317.69
298.634	37359.2
298.7	37468.43
298.767	37534.61
298.834	37624.97
298.9	37667.17
298.967	37697.66
299.033	37767.16
299.1	37876.13
299.167	37967.86
299.233	37999.42
299.3	38090.27
299.366	38191.26
299.433	38299.49
299.5	38268.69
299.566	38325.9
299.633	38438.29
299.699	38534.02
299.766	38567.39
299.832	38633.55
299.899	38710.39
299.965	38796.46
300.032	38827.05
300.099	38907.83
300.165	38978.51
300.232	39020.29
300.298	39074.98
300.365	39182.58
300.431	39241.94
300.498	39250.2
300.564	39312.53
300.631	39401.63
300.697	39507.3
300.763	39546.7
300.83	39566.52
300.896	39660.19
300.963	39750.75
301.029	39799.83
301.096	39859.41
301.162	39954.44
301.229	39994.52
301.295	40006.91
301.361	40078.78
301.428	40151.94
301.494	40140.52
301.561	40192.17
301.627	40245.96
301.693	40299.66
301.76	40360.7
301.826	40385.67
301.892	40477.13
301.959	40557.42
302.025	40599.12
302.092	40627.31
302.158	40706.85
302.224	40772.23
302.291	40781.51
302.357	40821.85
302.423	40849.46
302.49	40849.6
302.556	40926.5
302.622	40967.42
302.688	41065.12
302.755	41146.64
302.821	41221.72
302.887	41315.32
302.954	41370.93
303.02	41460.18
303.086	41519.82
303.152	41548.64
303.219	41595.31
303.285	41661.96
303.351	41724.53
303.417	41770.72
303.483	41773.73
303.55	41800.71
303.616	41841.45
303.682	41895.01
303.748	41907.7
303.815	42009.08
303.881	42097.75
303.947	42106.41
304.013	42163.05
304.079	42168.2
304.145	42157.99
304.212	42207.72
304.278	42216.91
304.344	42238.6
304.41	42231.06
304.476	42247.83
304.542	42283.37
304.608	42351.93
304.674	42333.21
304.741	42351.88
304.807	42426.77
304.873	42514.63
304.939	42609.5
305.005	42595.4
305.071	42632.88
305.137	42693.8
305.203	42638.37
305.269	42686.03
305.335	42778.58
305.401	42818.9
305.467	42866.11
305.533	42931.91
305.599	42992.31
305.666	43073.37
305.732	43119.28
305.798	43213.63
305.864	43366.72
305.93	43427.42
305.996	43465.65
306.062	43513.3
306.128	43544.14
306.194	43535.97
306.259	43564.91
306.325	43579.46
306.391	43673.72
306.457	43747.6
306.523	43812.63
306.589	43955.16
306.655	43962.65
306.721	43943.44
306.787	43938.62
306.853	44035.34
306.919	44028.14
306.985	44056.55
307.051	44080.09
307.117	44099.6
307.183	44110.64
307.248	44040.28
307.314	44091.27
307.38	44134.52
307.446	44209.25
307.512	44217.67
307.578	44270.69
307.644	44294.73
307.709	44345.38
307.775	44354.48
307.841	44380.94
307.907	44410.09
307.973	44379.67
308.039	44422.15
308.104	44481.17
308.17	44539.74
308.236	44520.81
308.302	44574.96
308.368	44560.22
308.433	44613.45
308.499	44652.47
308.565	44657.24
308.631	44711.59
308.696	44676.8
308.762	44687.6
308.828	44722.84
308.894	44705.52
308.959	44674.24
309.025	44680.27
309.091	44704.51
309.156	44728.02
309.222	44781.07
309.288	44784.28
309.354	44756.25
309.419	44804.25
309.485	44792.47
309.551	44840.6
309.616	44847.47
309.682	44867.32
309.748	44903.52
309.813	44912.96
309.879	44914.67
309.945	44916.85
310.01	44928.83
310.076	44982.7
310.141	44993.75
310.207	44967.07
310.273	45031.59
310.338	45085.5
310.404	45072.26
310.469	45066.62
310.535	45080.05
310.601	45029.43
310.666	45087.85
310.732	45154.13
310.797	45148.62
310.863	45153.15
310.928	45170.73
310.994	45215.94
311.059	45238.09
311.125	45261.69
311.191	45335.61
311.256	45337.66
311.322	45393.92
311.387	45373.96
311.453	46191.37
311.518	46233.19
311.584	46273.15
311.649	46319.45
311.715	46339.89
311.78	46402.91
311.846	46407.49
311.911	46464.9
311.976	46524.13
312.042	46499.59
312.107	46511.03
312.173	46508.6
312.238	46531.09
312.304	46548.81
312.369	46564.63
312.434	46585.37
312.5	46609.91
312.565	46531.66
312.631	46587.1
312.696	46590.02
312.761	46647.85
312.827	45890.24
312.892	45971.21
312.958	45998.29
313.023	46038.61
313.088	46060.08
313.154	46048.64
313.219	46061.35
313.284	46048.83
313.35	46065.87
313.415	46078.77
313.48	46081.55
313.546	46146.42
313.611	46211.91
313.676	46205.29
313.741	46199.4
313.807	46248.39
313.872	46285.01
313.937	46347.72
314.003	46430.78
314.068	46475.09
314.133	46512.64
314.198	46504.75
314.264	46454.66
314.329	46453.15
314.394	46449.5
314.459	46471.51
314.525	46564.91
314.59	46581.91
314.655	46582.93
314.72	46630.91
314.785	46660.76
314.851	46670.26
314.916	46625.64
314.981	46598.12
315.046	46605.43
315.111	46602.26
315.176	46589.79
315.242	46630.47
315.307	46648.44
315.372	46603.03
315.437	46615.31
315.502	46614.29
315.567	46671
315.632	46670.41
315.698	46714.84
315.763	46751.44
315.828	46757.67
315.893	46757.18
315.958	46784.02
316.023	46787.52
316.088	46751.13
316.153	46702.05
316.218	46698.01
316.283	46652.49
316.348	46617.78
316.413	46628.93
316.479	46594.57
316.544	46490.33
316.609	46386.56
316.674	46263.1
316.739	46131.82
316.804	46009.28
316.869	45882.81
316.934	45733.66
316.999	45606.37
317.064	45400.46
317.129	45220.42
317.194	45070.09
317.259	44880.73
317.324	44662.89
317.389	44472.98
317.454	44308.64
317.518	44165.47
317.583	44039.73
317.648	43933.63
317.713	43767.07
317.778	43523.13
317.843	43387.37
317.908	43223.87
317.973	43042.36
318.038	42901.33
318.103	42736.51
318.168	42572.58
318.233	42409.98
318.297	42188.28
318.362	42010.81
318.427	41832.13
318.492	41689.33
318.557	41476.1
318.622	41331.03
318.687	41199.38
318.751	41005.04
318.816	40828.75
318.881	40652.53
318.946	40419.49
319.011	40187.97
319.075	39987.35
319.14	39802.74
319.205	39572.81
319.27	39378.75
319.335	39149.18
319.399	38942.28
319.464	38770.25
319.529	38525.51
319.594	38322.1
319.658	38152.96
319.723	37918.23
319.788	37738.82
319.853	37453.99
319.917	37252.93
319.982	36971.45
320.047	36750.91
320.112	36573.27
320.176	36297.79
320.241	36075.56
320.306	35869.74
320.37	35637.1
320.435	35438.99
320.5	35235.77
320.564	35004
320.629	34756.44
320.694	34559.84
320.758	34317.66
320.823	34057.06
320.888	33850.11
320.952	33576.04
321.017	33317.29
321.082	33080.29
321.146	32860.49
321.211	32655.06
321.275	32419.75
321.34	32177.02
321.405	31918.3
321.469	31661.7
321.534	31418.17
321.598	31156.29
321.663	30942.09
321.727	30730.03
321.792	30455.55
321.857	30206.4
321.921	29971.16
321.986	29730.8
322.05	29422.47
322.115	29188.67
322.179	28948.91
322.244	28653.57
322.308	28438.56
322.373	28176.38
322.437	27941.04
322.502	27737.69
322.566	27478.06
322.631	27256.66
322.695	27013.36
322.76	26764.85
322.824	26528.36
322.889	26268.52
322.953	25988.37
323.018	25653.98
323.082	25322.33
323.146	25030.98
323.211	24731.66
323.275	24470.12
323.34	24200.43
323.404	23973.08
323.468	23701.4
323.533	23433.15
323.597	23164.78
323.662	22872.93
323.726	22645.28
323.79	22367.56
323.855	22024.91
323.919	21740.61
323.983	21461.18
324.048	21057.26
324.112	21213.02
324.177	20374.15
324.241	19277
324.305	18196.3
324.37	17122.98
324.434	16086.4
324.498	15803.35
324.562	15488.69
324.627	15114.04
324.691	14757.95
324.755	14355.26
324.82	13890.18
324.884	13402.47
324.948	12917.81
325.012	12315.01
325.077	11566.08
