Data from 20250701_urea_2M_exp3_MAYP1162681_02-09-49-859.txt Node
Date: Wed Jul 02 02:09:49 BST 2025
User: adleo
Spectrometer: MAYP116268
Trigger mode: 0
Integration Time (sec): 4.000000E0
Scans to average: 1
Electric dark correction enabled: true
Nonlinearity correction enabled: true
Boxcar width: 10
XAxis mode: Wavelengths
Number of Pixels in Spectrum: 2068
>>>>>Begin Spectral Data<<<<<
179.565	3704.13
179.642	3895.93
179.718	4049.31
179.795	4181
179.871	4292.38
179.948	4352.71
180.024	4425.12
180.101	4503.03
180.177	4558.01
180.254	4637.2
180.33	4708.17
180.407	4979.26
180.483	5266.88
180.56	5558.62
180.636	5825.97
180.712	5788.67
180.789	5818.65
180.865	5861.74
180.942	5892.67
181.018	5931.39
181.095	5974.11
181.171	5989.37
181.248	5989.99
181.324	6041.16
181.4	6070.63
181.477	6107.49
181.553	6156.89
181.63	6226
181.706	6285.77
181.782	6306.4
181.859	6305.25
181.935	6327.13
182.011	6309.76
182.088	6366.65
182.164	6435.58
182.24	6483.47
182.317	6511.83
182.393	6509.82
182.469	6564.6
182.546	6606.94
182.622	6620.29
182.698	6611.88
182.775	6649.48
182.851	6697.11
182.927	6676.84
183.003	6660.04
183.08	6641.42
183.156	6669.17
183.232	6658.03
183.308	6612.98
183.385	6641.88
183.461	6699.46
183.537	6705.75
183.613	6749.02
183.69	6720.68
183.766	6684.69
183.842	6706.59
183.918	6724.31
183.995	6762.73
184.071	6769.41
184.147	6757.11
184.223	6722.07
184.299	6757.63
184.375	6721.71
184.452	6741.37
184.528	6864.62
184.604	6897.99
184.68	6936.83
184.756	6965.48
184.832	6983.68
184.908	7005.86
184.985	7004.71
185.061	6951.3
185.137	6981.38
185.213	6943.05
185.289	6947.57
185.365	6919.09
185.441	6913.09
185.517	6963.66
185.593	6955.49
185.669	6945.73
185.745	6978.07
185.822	7032.51
185.898	7007.14
185.974	7042.81
186.05	7021.14
186.126	6939.59
186.202	6919.62
186.278	6912.51
186.354	6875.94
186.43	6893.72
186.506	6890.31
186.582	6893.87
186.658	6917.15
186.734	6849.3
186.81	6855.49
186.886	6865.24
186.962	6907.65
187.038	6897.32
187.114	6862.9
187.19	6892.16
187.266	6864.35
187.341	6870.36
187.417	6845.63
187.493	6843.42
187.569	6847.21
187.645	6826.94
187.721	6786.97
187.797	6814.59
187.873	6821.41
187.949	6803.79
188.025	6782.26
188.101	6786.14
188.176	6800.89
188.252	6787.59
188.328	6812.59
188.404	6813.6
188.48	6792.62
188.556	6772.73
188.632	6769.99
188.707	6778.59
188.783	6767.3
188.859	6745.94
188.935	6698.62
189.011	6725.76
189.086	6706.93
189.162	6682.01
189.238	6674.52
189.314	6670.72
189.39	6649.16
189.465	6626.68
189.541	6679.13
189.617	6630.54
189.693	6615.27
189.768	6622.24
189.844	6703.51
189.92	6675.67
189.996	6706.08
190.071	6743.54
190.147	6730.62
190.223	6764.21
190.298	6736.96
190.374	6688.65
190.45	6732.38
190.526	6765.24
190.601	6748.71
190.677	6751.83
190.753	6841.82
190.828	6852.05
190.904	6901.58
190.98	6953.62
191.055	6993.93
191.131	6968.99
191.207	7036.28
191.282	7067.64
191.358	7041.17
191.433	6991.32
191.509	7041.72
191.585	7033.84
191.66	7038.5
191.736	7074.43
191.811	7041.81
191.887	7093.82
191.963	7179.97
192.038	7197.03
192.114	7197.99
192.189	7211.63
192.265	7200.59
192.34	7131.2
192.416	7127.46
192.491	7112.17
192.567	7114.05
192.642	7120.15
192.718	7120.97
192.793	7081.14
192.869	7066.01
192.944	7072.83
193.02	7100.56
193.095	7109.5
193.171	7127.42
193.246	7123.67
193.322	7114.01
193.397	7113.1
193.473	7065.66
193.548	6999.52
193.624	7016.93
193.699	7012.02
193.775	7054.04
193.85	7057.54
193.925	7084.84
194.001	7085.75
194.076	7065.48
194.152	7029.76
194.227	7004.87
194.302	6967.9
194.378	6987.01
194.453	6979.81
194.529	7017.1
194.604	6963.76
194.679	6939.84
194.755	6877.89
194.83	6921.79
194.905	6911.65
194.981	6947.16
195.056	6925.64
195.131	6947.55
195.207	6942.6
195.282	6908.06
195.357	6852.26
195.433	6910.35
195.508	6873.35
195.583	6898.9
195.659	6942.34
195.734	6972.91
195.809	6968.68
195.884	7007.48
195.96	6999.31
196.035	7050.24
196.11	7038.47
196.185	7080.02
196.261	7097.17
196.336	7203.22
196.411	7150
196.486	7171.04
196.561	7145.24
196.637	7170.31
196.712	7224.93
196.787	7236.9
196.862	7292.87
196.937	7327.94
197.013	7344.05
197.088	7375.14
197.163	7448.34
197.238	7506.84
197.313	7502.28
197.388	7541.06
197.464	7638.32
197.539	7680.85
197.614	7657.49
197.689	7702.12
197.764	7754.49
197.839	7821.67
197.914	7797.9
197.989	7876.09
198.065	7918.36
198.14	8088.37
198.215	8179.8
198.29	8216.23
198.365	8257.8
198.44	8290.46
198.515	8381.06
198.59	8432.21
198.665	8522.71
198.74	8553.33
198.815	8562.18
198.89	8640.75
198.965	8748.33
199.04	8735.09
199.115	8788.89
199.19	8930.98
199.265	8937.91
199.34	8976.13
199.415	9087.95
199.49	9158.69
199.565	9190.07
199.64	9271.77
199.715	9263.53
199.79	9290.39
199.865	9313.41
199.94	9306.82
200.015	9414
200.09	9436.97
200.165	9458.93
200.24	9478.19
200.315	9603.22
200.39	9647.52
200.464	9661.34
200.539	9669.34
200.614	9719.99
200.689	9801
200.764	9820.08
200.839	9876.84
200.914	9889.93
200.989	9849.75
201.063	9898.83
201.138	9844.11
201.213	9838.96
201.288	9777.07
201.363	9790.46
201.438	9789.59
201.512	9838.74
201.587	9777.86
201.662	9787.93
201.737	9822.8
201.812	9851.03
201.886	9738.86
201.961	9774.17
202.036	9737.35
202.111	9724.05
202.186	9631.97
202.26	9572.05
202.335	9499.66
202.41	9482.95
202.485	9428.31
202.559	9364.28
202.634	9272.89
202.709	9305.47
202.784	9240.43
202.858	9234.36
202.933	9169.71
203.008	9145.49
203.082	9084.26
203.157	9085.56
203.232	8936.4
203.306	8871.15
203.381	8760.32
203.456	8688.27
203.53	8614.38
203.605	8553.29
203.68	8468.04
203.754	8442.46
203.829	8391.58
203.904	8327.4
203.978	8285.67
204.053	8298.76
204.127	8259.36
204.202	8255.71
204.277	8194.9
204.351	8178.4
204.426	8155.64
204.5	8127.74
204.575	8014.98
204.65	8052.52
204.724	8023.49
204.799	8048.86
204.873	8031.3
204.948	8027.4
205.022	7985.09
205.097	7947.98
205.171	7989.91
205.246	8020.61
205.32	8019.22
205.395	8013.74
205.469	7984.27
205.544	7999.86
205.618	7942.09
205.693	7982.55
205.767	7939.17
205.842	8006.33
205.916	7982.72
205.991	7948.67
206.065	7971.9
206.14	8017.59
206.214	7998.39
206.289	7975.05
206.363	8018.77
206.438	8030.03
206.512	8056.39
206.586	8123.48
206.661	8155.92
206.735	8080.98
206.81	8082.28
206.884	8131.95
206.958	8087.33
207.033	8143.58
207.107	8172.32
207.181	8275.11
207.256	8257.21
207.33	8317.96
207.405	8357.88
207.479	8421.86
207.553	8450.04
207.628	8388.69
207.702	8430.3
207.776	8401.28
207.851	8408.69
207.925	8463.86
207.999	8449.86
208.073	8441.15
208.148	8447.36
208.222	8404.09
208.296	8514.21
208.371	8570.94
208.445	8603.28
208.519	8702.34
208.593	8741.61
208.668	8729.04
208.742	8735.73
208.816	8734.48
208.89	8780.9
208.965	8773.72
209.039	8803.04
209.113	8861.77
209.187	8939.29
209.261	8927.59
209.336	8995.41
209.41	9064.39
209.484	9060.01
209.558	9132.71
209.632	9173.43
209.707	9209.82
209.781	9280.78
209.855	9339.34
209.929	9393.26
210.003	9415.5
210.077	9413.1
210.151	9576.38
210.226	9688.91
210.3	9787.79
210.374	9867.17
210.448	9885.09
210.522	9926.46
210.596	9960.86
210.67	9992.79
210.744	10149.74
210.818	10263.95
210.892	10331.63
210.966	10309.72
211.041	10369.16
211.115	10359.34
211.189	10443.3
211.263	10502.4
211.337	10529.91
211.411	10577.42
211.485	10560.46
211.559	10599.57
211.633	10602.22
211.707	10493.93
211.781	10521.11
211.855	10394.98
211.929	10365.65
212.003	10298.58
212.077	10328.6
212.151	10363.05
212.225	10383.82
212.299	10341.11
212.373	10297.13
212.447	10278.05
212.52	10376.62
212.594	10382.88
212.668	10416.36
212.742	10359.22
212.816	10335.42
212.89	10308.69
212.964	10293.89
213.038	10301.17
213.112	10337.02
213.186	10389.38
213.26	10306.71
213.333	10139.95
213.407	10155.5
213.481	10156.9
213.555	10194.93
213.629	10146.5
213.703	10085.42
213.777	10079.68
213.85	10003.86
213.924	10101.52
213.998	10100.17
214.072	10066.83
214.146	10003.09
214.219	9985.7
214.293	9973.61
214.367	9963.11
214.441	9987.63
214.515	9929.34
214.588	9831.85
214.662	9704.22
214.736	9618.55
214.81	9640.07
214.883	9660.62
214.957	9602.66
215.031	9543.27
215.105	9445.79
215.178	9382.08
215.252	9348.76
215.326	9241.25
215.4	9159.19
215.473	8978.12
215.547	8886.48
215.621	8815.72
215.694	8812.93
215.768	8708.81
215.842	8640.08
215.915	8567.43
215.989	8451.12
216.063	8396.53
216.136	8378.09
216.21	8352.84
216.284	8362.47
216.357	8330.13
216.431	8288.12
216.504	8287.5
216.578	8349.92
216.652	8362.71
216.725	8330.42
216.799	8327.39
216.873	8312.04
216.946	8314.93
217.02	8274.55
217.093	8240.87
217.167	8144.33
217.24	8058.62
217.314	8025.4
217.387	7976.32
217.461	7935.1
217.535	7954.25
217.608	7890.28
217.682	7857.91
217.755	7868.92
217.829	7813.74
217.902	7796.76
217.976	7778.83
218.049	7732.66
218.123	7652.97
218.196	7653.89
218.27	7625.75
218.343	7554.13
218.417	7551.82
218.49	7534.51
218.563	7576.57
218.637	7586.14
218.71	7661.07
218.784	7689.69
218.857	7719.25
218.931	7739.25
219.004	7744.01
219.077	7768.07
219.151	7789.94
219.224	7783.01
219.298	7777.34
219.371	7825.88
219.444	7786.32
219.518	7792.47
219.591	7810.98
219.665	7916.19
219.738	7926.77
219.811	7904.61
219.885	7955.02
219.958	7981.81
220.031	7982.05
220.105	8006.35
220.178	8015.05
220.251	7986.91
220.325	8008.9
220.398	8035.54
220.471	8056.6
220.544	8096.53
220.618	8071.36
220.691	8093.2
220.764	8113.92
220.838	8144.24
220.911	8124.27
220.984	8211.84
221.057	8247.82
221.131	8267.54
221.204	8168.53
221.277	8233.55
221.35	8360.66
221.424	8354.5
221.497	8366.24
221.57	8391.77
221.643	8425.03
221.716	8475.57
221.79	8476.53
221.863	8485.92
221.936	8489.96
222.009	8507.13
222.082	8536.73
222.155	8539.33
222.229	8613.27
222.302	8642.77
222.375	8643.39
222.448	8681.8
222.521	8685.21
222.594	8692
222.667	8661.94
222.74	8719.01
222.814	8712.32
222.887	8695.85
222.96	8750.67
223.033	8795.78
223.106	8820.85
223.179	8849.93
223.252	8858.12
223.325	8893.92
223.398	8906.92
223.471	8932.77
223.544	8953.02
223.617	8962.08
223.69	8991.09
223.763	8949.98
223.837	8972.84
223.91	9003.22
223.983	8952.88
224.056	8916.5
224.129	8934.65
224.202	8995.26
224.275	8980.48
224.348	8956.42
224.42	8920.41
224.493	8861.49
224.566	8835.44
224.639	8854.5
224.712	8828.16
224.785	8814.44
224.858	8802.26
224.931	8789.02
225.004	8750.14
225.077	8746.77
225.15	8661.55
225.223	8654.96
225.296	8741.02
225.369	8686.02
225.442	8653.09
225.514	8677.34
225.587	8697.31
225.66	8704.43
225.733	8703.47
225.806	8712.66
225.879	8701.74
225.952	8668.4
226.025	8718.36
226.097	8771.09
226.17	8759.06
226.243	8690.39
226.316	8683.03
226.389	8689.52
226.461	8707.39
226.534	8729.42
226.607	8725.28
226.68	8807.95
226.753	8802.17
226.825	8712.21
226.898	8768.8
226.971	8779.25
227.044	8790.99
227.117	8803.89
227.189	8818.82
227.262	8851.94
227.335	8876.69
227.407	8872.26
227.48	8907.48
227.553	8913.5
227.626	8885.37
227.698	8894.99
227.771	8934.34
227.844	8915.62
227.916	8932.52
227.989	8897.86
228.062	8896.13
228.134	8979.62
228.207	8978.42
228.28	8969.9
228.352	8983.23
228.425	8982.17
228.498	9021.7
228.57	9007.5
228.643	9066.78
228.716	9067.31
228.788	9056.53
228.861	9050.84
228.934	9118.19
229.006	9125.46
229.079	9121.03
229.151	9111.49
229.224	9077.57
229.296	9100.77
229.369	9207.83
229.442	9253.87
229.514	9233.47
229.587	9278.77
229.659	9201.49
229.732	9212.08
229.804	9254.2
229.877	9334.63
229.949	9373.6
230.022	9420.81
230.094	9422.01
230.167	9406.64
230.239	9361.59
230.312	9350.61
230.384	9419.49
230.457	9418.24
230.529	9427.62
230.602	9437.64
230.674	9448.04
230.747	9491.84
230.819	9525.74
230.892	9400.68
230.964	9402.08
231.037	9434.41
231.109	9416.84
231.181	9458.91
231.254	9428.58
231.326	9418.76
231.399	9395.2
231.471	9363.89
231.544	9288.75
231.616	9333.86
231.688	9335.11
231.761	9328.38
231.833	9314.85
231.905	9224.59
231.978	9213.18
232.05	9199.27
232.122	9197.97
232.195	9170.19
232.267	9209.29
232.339	9184.68
232.412	9254.63
232.484	9229.14
232.556	9199.74
232.629	9276.14
232.701	9294.25
232.773	9303.63
232.846	9293.67
232.918	9299.31
232.99	9313.32
233.062	9361.04
233.135	9370.24
233.207	9337.4
233.279	9382.31
233.351	9418.75
233.424	9425.16
233.496	9406.28
233.568	9487.67
233.64	9455.46
233.713	9476.07
233.785	9464.27
233.857	9484.59
233.929	9430.91
234.001	9497.87
234.074	9566.9
234.146	9492.33
234.218	9491.95
234.29	9494.74
234.362	9484.44
234.434	9431.12
234.507	9395.97
234.579	9340.11
234.651	9317.1
234.723	9347.29
234.795	9363.81
234.867	9356.92
234.939	9418.08
235.012	9433.92
235.084	9443.41
235.156	9479.96
235.228	9458.53
235.3	9445.72
235.372	9451.07
235.444	9514
235.516	9434.03
235.588	9442.12
235.66	9462.3
235.732	9432.82
235.804	9455.7
235.876	9501.72
235.948	9566.27
236.02	9586.39
236.092	9596.89
236.164	9612
236.236	9610.56
236.308	9611.52
236.38	9634.98
236.452	9614.6
236.524	9635.74
236.596	9691.6
236.668	9721.61
236.74	9753.72
236.812	9792.3
236.884	9830.26
236.956	9844.81
237.028	9838.74
237.1	9816.74
237.172	9892.18
237.244	9965.35
237.316	10018.78
237.388	9998.31
237.46	9980.44
237.532	10036.07
237.604	10033.52
237.675	10110.31
237.747	10158.05
237.819	10147.7
237.891	10153.04
237.963	10137.68
238.035	10138.79
238.107	10030.96
238.178	10094.18
238.25	10096.15
238.322	10177.74
238.394	10127.88
238.466	10124.08
238.538	10171.9
238.609	10219.39
238.681	10155.41
238.753	10132.62
238.825	10147.31
238.897	10176.88
238.968	10255
239.04	10243.96
239.112	10354.47
239.184	10313.37
239.255	10313.66
239.327	10349.25
239.399	10370.6
239.471	10417.56
239.542	10448.3
239.614	10512.66
239.686	10428.62
239.758	10482.2
239.829	10450.72
239.901	10516.77
239.973	10530.89
240.044	10560.52
240.116	10571.26
240.188	10586.44
240.259	10605.76
240.331	10597.18
240.403	10638.47
240.474	10589.31
240.546	10576.5
240.618	10514.53
240.689	10518.58
240.761	10536.36
240.833	10593.89
240.904	10599.19
240.976	10601.7
241.048	10618.22
241.119	10662.66
241.191	10709.39
241.262	10778.5
241.334	10773.64
241.405	10780.87
241.477	10783.61
241.549	10791.18
241.62	10817.15
241.692	10865.29
241.763	10926.49
241.835	10949.62
241.906	10959.26
241.978	10932.38
242.049	11000.65
242.121	11066.91
242.192	11128.64
242.264	11099.73
242.335	11055.78
242.407	11104.31
242.478	11112.16
242.55	11139.05
242.621	11116.11
242.693	11119.58
242.764	11109.5
242.836	11115.72
242.907	11145.84
242.979	11181.94
243.05	11204.54
243.122	11224.92
243.193	11217.6
243.264	11141.84
243.336	11141.12
243.407	11185.22
243.479	11265.94
243.55	11283.67
243.622	11292.01
243.693	11292.93
243.764	11351.91
243.836	11331.29
243.907	11316.11
243.978	11323.58
244.05	11344.3
244.121	11300.98
244.192	11340.31
244.264	11292.35
244.335	11311.49
244.407	11265.03
244.478	11276.79
244.549	11265.22
244.62	11229.03
244.692	11236.55
244.763	11284.59
244.834	11277.22
244.906	11249.26
244.977	11267.63
245.048	11309.18
245.119	11295.15
245.191	11268.12
245.262	11208.75
245.333	11283.68
245.405	11301.17
245.476	11324.5
245.547	11345.41
245.618	11399.92
245.689	11410.04
245.761	11442.33
245.832	11443.39
245.903	11484.16
245.974	11511.1
246.045	11526.72
246.117	11600.36
246.188	11577.81
246.259	11559.88
246.33	11576.37
246.401	11588.75
246.473	11556.84
246.544	11554.53
246.615	11605.43
246.686	11612.51
246.757	11691.31
246.828	11673.52
246.899	11749.25
246.97	11723.95
247.042	11704.91
247.113	11751.09
247.184	11841.86
247.255	11837.28
247.326	11867.26
247.397	11877.43
247.468	11888.71
247.539	11894.16
247.61	11856.99
247.681	11906.73
247.752	11963.41
247.823	11943.6
247.894	11963.07
247.965	11935.22
248.037	11916.75
248.108	11867.88
248.179	11876.22
248.25	11861.03
248.321	11882.91
248.392	11832.59
248.463	11915.1
248.534	11913.51
248.605	11922.62
248.675	11896.88
248.746	11915.53
248.817	11929.8
248.888	11949.81
248.959	11896.45
249.03	11931.97
249.101	11945.71
249.172	11938.67
249.243	11864.5
249.314	11925.86
249.385	11934.82
249.456	11962.73
249.527	11960.56
249.598	11981.81
249.669	11985.04
249.739	12004.28
249.81	12022.35
249.881	11973.91
249.952	11964.03
250.023	11964.51
250.094	11917.32
250.165	11885.84
250.235	11882.23
250.306	11885.27
250.377	11845.84
250.448	11872.3
250.519	11805.78
250.59	11860.25
250.66	11845.51
250.731	11920.74
250.802	11922.62
250.873	11940.26
250.944	11967.25
251.014	11959.49
251.085	12052
251.156	12081.5
251.227	12131.92
251.297	12181.04
251.368	12241.19
251.439	12283.08
251.51	12340.68
251.58	12327
251.651	12319.62
251.722	12379.64
251.792	12332.01
251.863	12341.94
251.934	12406.1
252.005	12523.23
252.075	12530.7
252.146	12586.37
252.217	12628.02
252.287	12671.94
252.358	12675.6
252.429	12741.83
252.499	12734.46
252.57	12749.07
252.641	12790.57
252.711	12791.2
252.782	12750.17
252.852	12824.94
252.923	12826.39
252.994	12838.15
253.064	12894.93
253.135	12873.63
253.205	12846.58
253.276	12918.65
253.347	12986.08
253.417	12965.69
253.488	12945.01
253.558	12930.21
253.629	12932.72
253.699	12947.81
253.77	12974.03
253.841	12967.14
253.911	12978.47
253.982	12998.9
254.052	13019.92
254.123	13033.28
254.193	13039.11
254.264	13171.14
254.334	13130.17
254.405	13096.62
254.475	13062.68
254.546	13060.51
254.616	13129.93
254.687	13163.57
254.757	13183.39
254.827	13183.1
254.898	13201.66
254.968	13201.22
255.039	13184.5
255.109	13219.83
255.18	13190.86
255.25	13116.96
255.321	13149.45
255.391	13111.7
255.461	13189.12
255.532	13103.46
255.602	13093.24
255.673	13042.58
255.743	13009.84
255.813	12940.72
255.884	12989.89
255.954	13026.87
256.024	13092.43
256.095	13089.05
256.165	13049.47
256.235	13076.57
256.306	13063.7
256.376	13112.77
256.446	13163.96
256.517	13195.88
256.587	13234.78
256.657	13265.29
256.728	13287.18
256.798	13296
256.868	13290.7
256.938	13268.67
257.009	13316.25
257.079	13351.34
257.149	13447.66
257.219	13382.05
257.29	13425.62
257.36	13360.93
257.43	13401.23
257.5	13339.67
257.571	13332.68
257.641	13365.94
257.711	13325.4
257.781	13354.37
257.852	13367.25
257.922	13304.38
257.992	13308.96
258.062	13306.12
258.132	13346.81
258.202	13353.17
258.273	13368.16
258.343	13443.12
258.413	13422.49
258.483	13424.42
258.553	13384.31
258.623	13356.35
258.693	13384.84
258.764	13453.44
258.834	13532.54
258.904	13549.13
258.974	13538.81
259.044	13548.07
259.114	13576.94
259.184	13605.72
259.254	13610.73
259.324	13561.13
259.394	13603.02
259.464	13683.67
259.535	13684.54
259.605	13669.69
259.675	13660.53
259.745	13694.03
259.815	13667.86
259.885	13671.23
259.955	13786.73
260.025	13780.61
260.095	13793.38
260.165	13826.93
260.235	13886.42
260.305	13865.3
260.375	13825.39
260.445	13914.42
260.515	13986.83
260.585	14039.42
260.655	14049.64
260.725	14094.91
260.795	14129.42
260.865	14202.6
260.934	14162.68
261.004	14197.05
261.074	14202.69
261.144	14267.92
261.214	14302.24
261.284	14308.51
261.354	14352.66
261.424	14305.57
261.494	14376.15
261.564	14385.3
261.634	14415.19
261.703	14351.51
261.773	14378.75
261.843	14420.26
261.913	14410.95
261.983	14349.78
262.053	14370.8
262.123	14367.23
262.192	14328.42
262.262	14369.11
262.332	14319.22
262.402	14366.12
262.472	14374.36
262.541	14314.2
262.611	14358.16
262.681	14334.98
262.751	14371.95
262.821	14371.66
262.89	14349.25
262.96	14378.51
263.03	14459.87
263.1	14482.05
263.169	14497.18
263.239	14533.34
263.309	14598.51
263.379	14636.25
263.448	14656.35
263.518	14677.9
263.588	14693.66
263.657	14764.33
263.727	14800.58
263.797	14811.43
263.867	14795.13
263.936	14754.16
264.006	14812.59
264.076	14798.03
264.145	14801.5
264.215	14784.34
264.285	14821.6
264.354	14775.42
264.424	14765.63
264.494	14710.39
264.563	14698.73
264.633	14783.08
264.702	14800.73
264.772	14744.14
264.842	14741.92
264.911	14778.89
264.981	14732.67
265.05	14741.39
265.12	14732.09
265.19	14745.2
265.259	14788.15
265.329	14827.29
265.398	14851.44
265.468	14962.26
265.537	14965.44
265.607	15000.05
265.676	15044.25
265.746	15076.45
265.815	15133.86
265.885	15145.05
265.955	15134.01
266.024	15135.17
266.094	15063.73
266.163	15123.98
266.232	15190.02
266.302	15198.11
266.371	15216.43
266.441	15245.06
266.51	15292.78
266.58	15302.38
266.649	15289.99
266.719	15349.42
266.788	15381.04
266.858	15457.82
266.927	15385.38
266.996	15408.52
267.066	15435.41
267.135	15406.49
267.205	15445.1
267.274	15464.09
267.343	15511.47
267.413	15523.09
267.482	15586.62
267.552	15654.05
267.621	15612.26
267.69	15563.39
267.76	15592.98
267.829	15617.61
267.898	15637.71
267.968	15617.76
268.037	15653.96
268.106	15710.45
268.176	15674.35
268.245	15679.79
268.314	15667.07
268.384	15726.21
268.453	15750.55
268.522	15775.33
268.592	15839.67
268.661	15824.97
268.73	15865.56
268.799	15851.1
268.869	15940.94
268.938	15889.8
269.007	15885.76
269.076	15905.28
269.146	15964.61
269.215	15991.84
269.284	16070.98
269.353	16066.31
269.422	16075.99
269.492	16070.21
269.561	15986.3
269.63	16022.83
269.699	16017.38
269.768	16049.63
269.838	16066.59
269.907	16113.97
269.976	16081.97
270.045	16019.5
270.114	16060.47
270.183	16060.37
270.253	16098.4
270.322	16047.36
270.391	16076.09
270.46	16145.58
270.529	16197.97
270.598	16239.71
270.667	16247.13
270.736	16221.25
270.806	16256.49
270.875	16328.74
270.944	16344.88
271.013	16471.98
271.082	16497.81
271.151	16534.83
271.22	16486.82
271.289	16498.39
271.358	16500.85
271.427	16546.68
271.496	16589.39
271.565	16582.98
271.634	16603.51
271.703	16733.1
271.772	16787.47
271.841	16800.82
271.91	16763.13
271.979	16778.41
272.048	16758.7
272.117	16804.63
272.186	16802.07
272.255	16846.31
272.324	16880.87
272.393	16911.81
272.462	16897.4
272.531	16924.2
272.6	16944.15
272.669	17026.76
272.738	17043.48
272.807	17079.24
272.876	17061.12
272.945	17197.85
273.013	17258.71
273.082	17326.09
273.151	17233.51
273.22	17279.97
273.289	17306.63
273.358	17394.14
273.427	17399.69
273.496	17445.23
273.564	17483.16
273.633	17534.29
273.702	17526.58
273.771	17537.85
273.84	17572.07
273.909	17615.97
273.977	17654.38
274.046	17659.93
274.115	17716.45
274.184	17717.8
274.253	17738.09
274.322	17811.73
274.39	17752.99
274.459	17745.47
274.528	17703.45
274.597	17726.05
274.665	17752.89
274.734	17826.63
274.803	17827.2
274.872	17856.84
274.94	17857.42
275.009	18083.56
275.078	18080.81
275.147	18115.51
275.215	18141.15
275.284	18201.58
275.353	18213.05
275.421	18169.58
275.49	18276.75
275.559	18285.14
275.627	18308.32
275.696	18314.25
275.765	18357.91
275.833	18376.9
275.902	18409.42
275.971	18487.98
276.039	18573.03
276.108	18631.1
276.177	18670.33
276.245	18680.45
276.314	18712.98
276.383	18770.9
276.451	18597.92
276.52	18658.25
276.588	18745.28
276.657	18807.21
276.725	18832.75
276.794	18880.89
276.863	18971.49
276.931	18926.86
277	18984.5
277.068	19060.93
277.137	19179.52
277.205	19212.73
277.274	19320.72
277.342	19413.3
277.411	19391.27
277.48	19402.93
277.548	19411.56
277.617	19452.62
277.685	19482.88
277.754	19542.64
277.822	19558.35
277.89	19647.45
277.959	19662.83
278.027	19643.21
278.096	19650.06
278.164	19785.87
278.233	19799.41
278.301	19810.3
278.37	19872.37
278.438	19875.02
278.507	19929.67
278.575	19881.19
278.643	19909.19
278.712	19889.24
278.78	19877.43
278.849	19961.76
278.917	20024.85
278.985	20053.86
279.054	20100.32
279.122	20181.52
279.191	20221.28
279.259	20252.6
279.327	20221.42
279.396	20319.78
279.464	20347.4
279.532	20407.64
279.601	20420.65
279.669	20454.63
279.737	20537.76
279.806	20596.51
279.874	20670.06
279.942	20694.64
280.011	20722.78
280.079	20790.25
280.147	20885.63
280.215	20944.47
280.284	20972.76
280.352	20975.46
280.42	21047.95
280.488	21060
280.557	21073.01
280.625	21116.58
280.693	21168.82
280.761	21223.14
280.83	21219.58
280.898	21314.76
280.966	21302.38
281.034	21235.18
281.102	21230.99
281.171	21253.74
281.239	21319.88
281.307	21329.71
281.375	21344.12
281.443	21477.83
281.512	21513.22
281.58	21568.7
281.648	21565.33
281.716	21614.87
281.784	21656.71
281.852	21676.09
281.92	21718.89
281.989	21799.68
282.057	21786.43
282.125	21968.16
282.193	22004.46
282.261	22049.72
282.329	22069.34
282.397	22125.5
282.465	22194.13
282.533	22289.23
282.601	22289.14
282.67	22254.76
282.738	22277.61
282.806	22361.88
282.874	22356.67
282.942	22406.13
283.01	22426.1
283.078	22494.74
283.146	22520.87
283.214	22597.62
283.282	22644.25
283.35	22726.65
283.418	22755.29
283.486	22813.72
283.554	22717.16
283.622	22766.34
283.69	22798.98
283.758	22829.3
283.826	22892.85
283.894	22960.79
283.962	23068.96
284.03	23164.47
284.098	23221.56
284.165	23256.65
284.233	23292.34
284.301	23322.04
284.369	23332.99
284.437	23365.39
284.505	23393.7
284.573	23491.54
284.641	23496.55
284.709	23569.34
284.777	23558.97
284.845	23625.58
284.912	23698.25
284.98	23762.1
285.048	23788.82
285.116	23854.99
285.184	23943.16
285.252	23988.01
285.319	23986.75
285.387	23998.38
285.455	23996.41
285.523	24076.57
285.591	24113.75
285.659	24169.32
285.726	24254.12
285.794	24261.93
285.862	24292.52
285.93	24336.4
285.997	24367.33
286.065	24402.11
286.133	24414.89
286.201	24462.16
286.269	24463.66
286.336	24477.12
286.404	24502.59
286.472	24582.82
286.539	24557.84
286.607	24548.57
286.675	24600.15
286.743	24668.22
286.81	24700.79
286.878	24791.21
286.946	24793.28
287.013	24839.01
287.081	24873.51
287.149	24873.9
287.216	24990.61
287.284	25030.18
287.352	25080.12
287.419	25111.15
287.487	25209.79
287.555	25267.71
287.622	25297.48
287.69	25357.37
287.758	25446.9
287.825	25476.72
287.893	25474.88
287.96	25537.69
288.028	25630.61
288.096	25688.97
288.163	25739.02
288.231	25748.87
288.298	25793.91
288.366	25886.26
288.433	25927.13
288.501	25946.14
288.569	26004.26
288.636	26023.77
288.704	26110.67
288.771	26190.38
288.839	26207.8
288.906	26226.4
288.974	26302.37
289.041	26346.68
289.109	26366.47
289.176	26429.89
289.244	26492.6
289.311	26583.28
289.379	26670.9
289.446	26714.76
289.514	26747.55
289.581	26789.08
289.649	26841.66
289.716	26882.38
289.783	26908.75
289.851	27020.4
289.918	27081.24
289.986	27150.37
290.053	27217.27
290.121	27253.5
290.188	27302.25
290.255	27446.22
290.323	27469.98
290.39	27500.04
290.458	27580.12
290.525	27683.03
290.592	27720.48
290.66	27784.88
290.727	27818.22
290.794	27900.03
290.862	27950.82
290.929	28012.19
290.996	28072.97
291.064	28147.23
291.131	28235.69
291.198	28324.33
291.266	28362.71
291.333	28411.65
291.4	28473.82
291.468	28572.79
291.535	28606.58
291.602	28655.01
291.669	28669.52
291.737	28744.86
291.804	28776.29
291.871	28861.57
291.938	28910.75
292.006	29034.25
292.073	29109.52
292.14	29190.13
292.207	29218.9
292.275	29270.83
292.342	29350.39
292.409	29479.21
292.476	29603.05
292.543	29616.01
292.611	29652.24
292.678	29759.29
292.745	29870.23
292.812	29942.8
292.879	29967.53
292.946	30030.64
293.014	30115.45
293.081	30191.75
293.148	30268.95
293.215	30369.68
293.282	30388.99
293.349	30470.44
293.416	30449.09
293.484	30530.92
293.551	30612.43
293.618	30710.27
293.685	30830.86
293.752	30847.79
293.819	30876.55
293.886	30888.8
293.953	30969.33
294.02	31060.77
294.087	31125.46
294.154	31159.2
294.221	31257.9
294.288	31315.66
294.356	31418.82
294.423	31482.69
294.49	31497.45
294.557	31585.82
294.624	31606.78
294.691	31733.45
294.758	31768.51
294.825	31843.7
294.892	31863.17
294.959	31912.53
295.026	31982.96
295.093	32002.24
295.16	32044.74
295.226	32089.06
295.293	32205.39
295.36	32265.11
295.427	32339.44
295.494	32412.28
295.561	32489.97
295.628	32607.07
295.695	32703.25
295.762	32756.54
295.829	32842.18
295.896	32948.46
295.963	33027.08
296.03	33114.33
296.096	33167.84
296.163	33261.62
296.23	33379.84
296.297	33489.35
296.364	33528.85
296.431	33595.75
296.498	33635.39
296.564	33781.93
296.631	33847.85
296.698	33850.23
296.765	33960.13
296.832	33982.18
296.899	33992.12
296.965	34098.35
297.032	34084.63
297.099	34187.26
297.166	34278.81
297.233	34325.51
297.299	34353.97
297.366	34410.23
297.433	34473.84
297.5	34562.84
297.566	34615.03
297.633	34647.48
297.7	34713.3
297.767	34761.49
297.833	34834.6
297.9	34904.42
297.967	34901.95
298.033	34999.74
298.1	35159.07
298.167	35194.68
298.234	35267.19
298.3	35352.66
298.367	35384.1
298.434	35448.97
298.5	35469.11
298.567	35484.54
298.634	35526.79
298.7	35642.11
298.767	35691.41
298.834	35784.77
298.9	35824.12
298.967	35851.78
299.033	35935.06
299.1	36033.39
299.167	36129.99
299.233	36153.77
299.3	36253.25
299.366	36353.64
299.433	36436.74
299.5	36392.57
299.566	36452.95
299.633	36556.53
299.699	36652.69
299.766	36694.38
299.832	36759.48
299.899	36823.17
299.965	36915.73
300.032	36946.79
300.099	37012.38
300.165	37089.86
300.232	37120.4
300.298	37155.93
300.365	37256.12
300.431	37298.8
300.498	37307.35
300.564	37376.19
300.631	37458.29
300.697	37547.93
300.763	37595.41
300.83	37631.5
300.896	37727.39
300.963	37801.73
301.029	37855.25
301.096	37912.85
301.162	37994.86
301.229	38018.56
301.295	38043.03
301.361	38117.68
301.428	38189.04
301.494	38181.23
301.561	38237.23
301.627	38306.72
301.693	38365.58
301.76	38419.54
301.826	38463.83
301.892	38550.19
301.959	38618.73
302.025	38667.49
302.092	38683.57
302.158	38759.92
302.224	38826.52
302.291	38841.14
302.357	38870.92
302.423	38904.39
302.49	38914.06
302.556	38994.7
302.622	39061.44
302.688	39148.93
302.755	39229.44
302.821	39304.1
302.887	39398.96
302.954	39438.22
303.02	39494.62
303.086	39568.85
303.152	39609.42
303.219	39639.44
303.285	39701.01
303.351	39775.16
303.417	39827.15
303.483	39847.41
303.55	39870.68
303.616	39917.67
303.682	39969.02
303.748	39999.34
303.815	40091.62
303.881	40175.05
303.947	40185.26
304.013	40232.58
304.079	40245.9
304.145	40224.03
304.212	40263.78
304.278	40279.08
304.344	40307.9
304.41	40312.85
304.476	40327.43
304.542	40348.72
304.608	40414.07
304.674	40410.28
304.741	40435.95
304.807	40492.32
304.873	40555.69
304.939	40649.39
305.005	40616.98
305.071	40654.78
305.137	40709.35
305.203	40664.35
305.269	40700.95
305.335	40784.55
305.401	40818.33
305.467	40861.15
305.533	40941.68
305.599	41004.38
305.666	41079.67
305.732	41124.38
305.798	41221.64
305.864	41342.49
305.93	41405
305.996	41443.2
306.062	41491.86
306.128	41524.33
306.194	41527.49
306.259	41568.37
306.325	41586.31
306.391	41676.18
306.457	41741.71
306.523	41796.34
306.589	41918.75
306.655	41934.65
306.721	41928.28
306.787	41930.91
306.853	42012.58
306.919	41985.85
306.985	42003.2
307.051	42017.49
307.117	42044.04
307.183	42069.86
307.248	42017.44
307.314	42070.24
307.38	42119.64
307.446	42181.93
307.512	42192.52
307.578	42249.16
307.644	42272.99
307.709	42306.58
307.775	42332.01
307.841	42372.13
307.907	42403.88
307.973	42383.06
308.039	42418.56
308.104	42467.33
308.17	42511.32
308.236	42501.55
308.302	42557.9
308.368	42566.65
308.433	42611.58
308.499	42637.54
308.565	42614.98
308.631	42667.15
308.696	42646.43
308.762	42645.85
308.828	42671.97
308.894	42644.01
308.959	42616.88
309.025	42642.56
309.091	42684.43
309.156	42695.86
309.222	42736.81
309.288	42735.88
309.354	42712.64
309.419	42746.01
309.485	42748.83
309.551	42810.2
309.616	42815.35
309.682	42846.23
309.748	42865.83
309.813	42894.57
309.879	42907.8
309.945	42933.28
310.01	42945.63
310.076	42985.41
310.141	42996.83
310.207	42988.32
310.273	43038.5
310.338	43089.07
310.404	43067.43
310.469	43046.42
310.535	43047.25
310.601	43019.14
310.666	43076.14
310.732	43133.52
310.797	43142.52
310.863	43132.01
310.928	43130.94
310.994	43159.54
311.059	43196.8
311.125	43232.35
311.191	43300.75
311.256	43301.72
311.322	43345.93
311.387	43325.22
311.453	44244.2
311.518	44283.02
311.584	44316.09
311.649	44384.82
311.715	44376.41
311.78	44426.65
311.846	44449.17
311.911	44510.21
311.976	44553.79
312.042	44539.1
312.107	44531.95
312.173	44526.99
312.238	44551.11
312.304	44576.55
312.369	44595.96
312.434	44573.49
312.5	44583.56
312.565	44506.74
312.631	44554.45
312.696	44572.5
312.761	44625.32
312.827	43755.02
312.892	43845.68
312.958	43860.57
313.023	43878.33
313.088	43934.31
313.154	43914.76
313.219	43908.92
313.284	43923.62
313.35	43933.35
313.415	43934.95
313.48	43967.2
313.546	44017.94
313.611	44083.76
313.676	44094.08
313.741	44092.43
313.807	44155.87
313.872	44191.38
313.937	44242.65
314.003	44313.84
314.068	44342.01
314.133	44381.32
314.198	44379.77
314.264	44334.01
314.329	44343.65
314.394	44357.18
314.459	44377.42
314.525	44479.78
314.59	44509.36
314.655	44492.38
314.72	44546.88
314.785	44598.25
314.851	44605.11
314.916	44566.97
314.981	44557.19
315.046	44551.06
315.111	44555.58
315.176	44556.65
315.242	44594.75
315.307	44627.4
315.372	44582.39
315.437	44579.08
315.502	44584.39
315.567	44643.51
315.632	44621.71
315.698	44656.85
315.763	44666.58
315.828	44660.31
315.893	44665.17
315.958	44668.87
316.023	44672.13
316.088	44627.6
316.153	44565.29
316.218	44560.71
316.283	44524.18
316.348	44467.9
316.413	44479.63
316.479	44448.98
316.544	44335.89
316.609	44242.86
316.674	44121.11
316.739	43999.77
316.804	43895.19
316.869	43775.29
316.934	43645.25
316.999	43534.66
317.064	43348.37
317.129	43185.52
317.194	43041.34
317.259	42859.52
317.324	42671.99
317.389	42491.21
317.454	42333.41
317.518	42198.74
317.583	42077.62
317.648	41971.48
317.713	41822.05
317.778	41584.16
317.843	41448.29
317.908	41290.86
317.973	41124.67
318.038	40980.75
318.103	40831.18
318.168	40676.92
318.233	40520.19
318.297	40306.51
318.362	40141.05
318.427	39962.31
318.492	39831.59
318.557	39621.73
318.622	39474.41
318.687	39347.97
318.751	39159.96
318.816	38994.69
318.881	38825.17
318.946	38590.79
319.011	38369.61
319.075	38174.78
319.14	37984.84
319.205	37775.24
319.27	37593.76
319.335	37368.63
319.399	37168.7
319.464	36996.86
319.529	36753.3
319.594	36545.79
319.658	36363.21
319.723	36138.81
319.788	35969.22
319.853	35710.02
319.917	35540.96
319.982	35282.69
320.047	35063.65
320.112	34887.41
320.176	34636.12
320.241	34423.34
320.306	34231.6
320.37	34015.13
320.435	33814.46
320.5	33647.31
320.564	33413.09
320.629	33179.87
320.694	32983.32
320.758	32753.79
320.823	32513.97
320.888	32334.5
320.952	32079.75
321.017	31845.77
321.082	31619.95
321.146	31404.2
321.211	31188.51
321.275	30954.23
321.34	30703.03
321.405	30467.16
321.469	30225.03
321.534	29988.77
321.598	29723.74
321.663	29525
321.727	29321.81
321.792	29059.63
321.857	28808.01
321.921	28588.96
321.986	28359.06
322.05	28067.34
322.115	27840.79
322.179	27598.26
322.244	27305.57
322.308	27095.36
322.373	26852.04
322.437	26616.33
322.502	26419.08
322.566	26165.05
322.631	25935.73
322.695	25704.56
322.76	25453.78
322.824	25232.11
322.889	24988.26
322.953	24740.2
323.018	24417.95
323.082	24093.55
323.146	23823.56
323.211	23537.21
323.275	23276.57
323.34	23009.33
323.404	22794.73
323.468	22527.12
323.533	22277.38
323.597	22023.3
323.662	21743.15
323.726	21508.58
323.79	21251.12
323.855	20915.91
323.919	20652.3
323.983	20392.36
324.048	20012.33
324.112	20188.43
324.177	19387.94
324.241	18330.03
324.305	17294.31
324.37	16269.97
324.434	15288.23
324.498	15017.94
324.562	14720
324.627	14371.97
324.691	14036.46
324.755	13645.86
324.82	13217.67
324.884	12753.55
324.948	12286.61
325.012	11724.21
325.077	11023.41
