Data from 20250701_urea_2M_exp3_MAYP1162681_19-39-51-739.txt Node
Date: Tue Jul 01 19:39:51 BST 2025
User: adleo
Spectrometer: MAYP116268
Trigger mode: 0
Integration Time (sec): 4.000000E0
Scans to average: 1
Electric dark correction enabled: true
Nonlinearity correction enabled: true
Boxcar width: 10
XAxis mode: Wavelengths
Number of Pixels in Spectrum: 2068
>>>>>Begin Spectral Data<<<<<
179.565	3971.26
179.642	4184.9
179.718	4343.49
179.795	4487.49
179.871	4611.08
179.948	4679.24
180.024	4756.03
180.101	4844.61
180.177	4903.23
180.254	4986.68
180.33	5073.85
180.407	5360.45
180.483	5672.59
180.56	5988.63
180.636	6277.55
180.712	6238.84
180.789	6280.03
180.865	6326.28
180.942	6358.52
181.018	6400.72
181.095	6453.51
181.171	6473.53
181.248	6474.01
181.324	6533
181.4	6558.5
181.477	6597.16
181.553	6647.41
181.63	6726.08
181.706	6786.33
181.782	6812.92
181.859	6814.41
181.935	6829.54
182.011	6822.87
182.088	6881.53
182.164	6947.23
182.24	6998.66
182.317	7032.42
182.393	7022.1
182.469	7073.31
182.546	7126.64
182.622	7140.82
182.698	7127.89
182.775	7169.07
182.851	7219.66
182.927	7194.24
183.003	7181.95
183.08	7160.47
183.156	7193.82
183.232	7180.79
183.308	7135.05
183.385	7172.32
183.461	7234.95
183.537	7239.51
183.613	7284.97
183.69	7253.25
183.766	7221.08
183.842	7247.76
183.918	7263.62
183.995	7312.49
184.071	7321.34
184.147	7297.35
184.223	7254.95
184.299	7295.09
184.375	7255.21
184.452	7277.91
184.528	7409.3
184.604	7444.18
184.68	7484.11
184.756	7510.65
184.832	7528.49
184.908	7543.43
184.985	7528
185.061	7468.02
185.137	7496.39
185.213	7458.08
185.289	7460.39
185.365	7428.82
185.441	7420.89
185.517	7473.7
185.593	7457.59
185.669	7451.2
185.745	7488.12
185.822	7546.19
185.898	7523.93
185.974	7559.53
186.05	7536.06
186.126	7462.8
186.202	7438.72
186.278	7430.75
186.354	7394.3
186.43	7415.7
186.506	7412.05
186.582	7412.87
186.658	7436.07
186.734	7370
186.81	7374.52
186.886	7390.71
186.962	7438.29
187.038	7426.32
187.114	7393.03
187.19	7420.63
187.266	7385.69
187.341	7388.77
187.417	7363.87
187.493	7355.56
187.569	7363.97
187.645	7339.55
187.721	7296.57
187.797	7326.79
187.873	7336.17
187.949	7315.22
188.025	7291.7
188.101	7305.1
188.176	7325.14
188.252	7312.46
188.328	7339.11
188.404	7344.3
188.48	7321.77
188.556	7298.31
188.632	7295.18
188.707	7305.86
188.783	7296.2
188.859	7279.1
188.935	7237.18
189.011	7263.42
189.086	7241.46
189.162	7212
189.238	7201.48
189.314	7194.12
189.39	7168.46
189.465	7150.19
189.541	7208.79
189.617	7151.8
189.693	7130.76
189.768	7142.78
189.844	7234.68
189.92	7206.63
189.996	7227.93
190.071	7267.24
190.147	7259.22
190.223	7296
190.298	7263.73
190.374	7218.03
190.45	7260.21
190.526	7289.43
190.601	7273.62
190.677	7276.5
190.753	7382.28
190.828	7402.02
190.904	7452.9
190.98	7511.65
191.055	7544.67
191.131	7515.39
191.207	7595.32
191.282	7630.2
191.358	7599.78
191.433	7542.14
191.509	7586.96
191.585	7583.6
191.66	7586.63
191.736	7621.04
191.811	7584.36
191.887	7644.58
191.963	7733.53
192.038	7755.84
192.114	7761.85
192.189	7776.03
192.265	7768.05
192.34	7683.04
192.416	7675.11
192.491	7660.15
192.567	7671.7
192.642	7684.69
192.718	7691.08
192.793	7648.96
192.869	7631.85
192.944	7638.96
193.02	7665.41
193.095	7681.71
193.171	7700.51
193.246	7696.85
193.322	7685.99
193.397	7690.94
193.473	7640.86
193.548	7570.79
193.624	7587.1
193.699	7581.23
193.775	7636.07
193.85	7645.19
193.925	7681.55
194.001	7678.81
194.076	7653.62
194.152	7612.49
194.227	7582.19
194.302	7536.55
194.378	7548.76
194.453	7543.85
194.529	7588.86
194.604	7536.31
194.679	7510.01
194.755	7444.9
194.83	7493.73
194.905	7481.86
194.981	7514.12
195.056	7488.02
195.131	7510.95
195.207	7501.19
195.282	7470.52
195.357	7403.67
195.433	7459.91
195.508	7414.04
195.583	7444.23
195.659	7491.07
195.734	7518.29
195.809	7519.39
195.884	7559.61
195.96	7554.46
196.035	7609.42
196.11	7591.62
196.185	7634.45
196.261	7655.17
196.336	7764.22
196.411	7711.39
196.486	7737.26
196.561	7711.87
196.637	7738.45
196.712	7795.17
196.787	7806.76
196.862	7859.02
196.937	7895.71
197.013	7909.9
197.088	7951.59
197.163	8024.3
197.238	8085.87
197.313	8082.98
197.388	8129.25
197.464	8234.78
197.539	8277.73
197.614	8253.49
197.689	8301.7
197.764	8360.99
197.839	8426.47
197.914	8403.95
197.989	8481.32
198.065	8523.13
198.14	8704.35
198.215	8802.57
198.29	8847.01
198.365	8891.2
198.44	8931.52
198.515	9029.44
198.59	9086.97
198.665	9179.35
198.74	9209.12
198.815	9216.29
198.89	9294.22
198.965	9394.29
199.04	9381.58
199.115	9435.16
199.19	9590.14
199.265	9600.87
199.34	9633.43
199.415	9756.65
199.49	9833.3
199.565	9864.6
199.64	9954.95
199.715	9944.93
199.79	9967.18
199.865	9988.33
199.94	9992.85
200.015	10101.63
200.09	10120.61
200.165	10143.92
200.24	10162.81
200.315	10298.37
200.39	10349.82
200.464	10375.16
200.539	10381.52
200.614	10437.25
200.689	10521.71
200.764	10533.27
200.839	10596.12
200.914	10617.8
200.989	10575.25
201.063	10622.32
201.138	10565.36
201.213	10563.33
201.288	10491.31
201.363	10507.45
201.438	10507.3
201.512	10562.89
201.587	10499.38
201.662	10507.19
201.737	10547.08
201.812	10573.58
201.886	10461.58
201.961	10488.66
202.036	10445.94
202.111	10438.42
202.186	10334.51
202.26	10276.97
202.335	10206.83
202.41	10179.95
202.485	10119.79
202.559	10051.54
202.634	9958.48
202.709	9989.43
202.784	9920.02
202.858	9919.93
202.933	9856.74
203.008	9830.15
203.082	9756.03
203.157	9749.24
203.232	9597.99
203.306	9518.46
203.381	9404.17
203.456	9321.49
203.53	9248.44
203.605	9178.32
203.68	9090.52
203.754	9066.66
203.829	9007
203.904	8930.95
203.978	8888.96
204.053	8901.82
204.127	8857.25
204.202	8853.15
204.277	8788.18
204.351	8767.1
204.426	8743.46
204.5	8712.46
204.575	8584.92
204.65	8620.02
204.724	8593.53
204.799	8621.86
204.873	8613
204.948	8607.18
205.022	8561.09
205.097	8522.81
205.171	8568.13
205.246	8595.33
205.32	8590.28
205.395	8594.86
205.469	8568.94
205.544	8587.57
205.618	8526.15
205.693	8568.08
205.767	8522.22
205.842	8602.65
205.916	8574.02
205.991	8528.93
206.065	8543.94
206.14	8605.72
206.214	8589.4
206.289	8568.02
206.363	8617.5
206.438	8623.76
206.512	8647.97
206.586	8719.75
206.661	8745.18
206.735	8673.65
206.81	8679.38
206.884	8736.64
206.958	8685.78
207.033	8742.64
207.107	8770.91
207.181	8884.83
207.256	8864.32
207.33	8934.05
207.405	8973.89
207.479	9044.89
207.553	9074
207.628	9021.37
207.702	9056.5
207.776	9032.67
207.851	9039.8
207.925	9086.99
207.999	9077.03
208.073	9070
208.148	9080.25
208.222	9042.36
208.296	9152.94
208.371	9213.39
208.445	9245.66
208.519	9350.64
208.593	9389.4
208.668	9378.85
208.742	9383.57
208.816	9385.16
208.89	9431.54
208.965	9422.53
209.039	9454.47
209.113	9523.67
209.187	9599.26
209.261	9589.06
209.336	9662.01
209.41	9734.74
209.484	9735.61
209.558	9808.86
209.632	9860.05
209.707	9903.01
209.781	9985.8
209.855	10039.61
209.929	10100
210.003	10126.93
210.077	10121.73
210.151	10291.12
210.226	10413.22
210.3	10512.99
210.374	10599.72
210.448	10609.89
210.522	10651.19
210.596	10685.49
210.67	10714.21
210.744	10883.82
210.818	11001.02
210.892	11071.76
210.966	11049.79
211.041	11109.59
211.115	11101.25
211.189	11187.75
211.263	11241.23
211.337	11260.89
211.411	11316.08
211.485	11296.32
211.559	11332.02
211.633	11344.54
211.707	11236.14
211.781	11255.33
211.855	11132.63
211.929	11097.32
212.003	11031.91
212.077	11065.55
212.151	11103.19
212.225	11131.91
212.299	11082.74
212.373	11036.44
212.447	11012.53
212.52	11114.31
212.594	11120.57
212.668	11155.8
212.742	11091.99
212.816	11074.69
212.89	11045.88
212.964	11027.99
213.038	11026.4
213.112	11066.07
213.186	11115.65
213.26	11036.46
213.333	10868.59
213.407	10873.89
213.481	10880.54
213.555	10915.02
213.629	10862.78
213.703	10788.76
213.777	10780.42
213.85	10705.87
213.924	10813.44
213.998	10805.01
214.072	10770.4
214.146	10714.26
214.219	10689.88
214.293	10673.3
214.367	10661.84
214.441	10691.9
214.515	10645.25
214.588	10552.94
214.662	10415.59
214.736	10321.22
214.81	10331.57
214.883	10350.11
214.957	10296.12
215.031	10235.5
215.105	10137.93
215.178	10071.45
215.252	10035.66
215.326	9926.36
215.4	9829.78
215.473	9639.68
215.547	9553.69
215.621	9477.03
215.694	9470.1
215.768	9367.04
215.842	9291.11
215.915	9215.1
215.989	9092.05
216.063	9025.92
216.136	9000.21
216.21	8976.24
216.284	8987.02
216.357	8954.43
216.431	8906.87
216.504	8901.58
216.578	8960.51
216.652	8972.25
216.725	8947.12
216.799	8952.03
216.873	8932.54
216.946	8945.53
217.02	8901.9
217.093	8864.3
217.167	8762.08
217.24	8675.6
217.314	8641.31
217.387	8596.96
217.461	8546.33
217.535	8567.41
217.608	8502.59
217.682	8472.8
217.755	8489.98
217.829	8430.82
217.902	8420.96
217.976	8398.87
218.049	8347.68
218.123	8272.33
218.196	8270.89
218.27	8236.58
218.343	8155.34
218.417	8148.84
218.49	8121.75
218.563	8170.15
218.637	8179.29
218.71	8255.22
218.784	8282.56
218.857	8317.19
218.931	8334.65
219.004	8346
219.077	8366.32
219.151	8383.54
219.224	8373.77
219.298	8364.44
219.371	8410.64
219.444	8366.44
219.518	8380.82
219.591	8401.46
219.665	8506.19
219.738	8517.21
219.811	8493.93
219.885	8546.42
219.958	8580.4
220.031	8582.91
220.105	8605.43
220.178	8613.23
220.251	8586.42
220.325	8604.71
220.398	8617.32
220.471	8641.47
220.544	8678.58
220.618	8653.45
220.691	8684.78
220.764	8700.51
220.838	8731.56
220.911	8713.17
220.984	8801.81
221.057	8840.89
221.131	8859.65
221.204	8763.63
221.277	8843.94
221.35	8972.37
221.424	8972.27
221.497	8988.74
221.57	9015.44
221.643	9049.39
221.716	9101.06
221.79	9107.27
221.863	9123.3
221.936	9141.26
222.009	9158.01
222.082	9189.21
222.155	9192.72
222.229	9261.93
222.302	9296.78
222.375	9297.65
222.448	9346.57
222.521	9357.31
222.594	9355.81
222.667	9331.23
222.74	9381.97
222.814	9371.23
222.887	9356.58
222.96	9406.9
223.033	9445.58
223.106	9475.95
223.179	9509.82
223.252	9516.04
223.325	9547.38
223.398	9556.29
223.471	9587.2
223.544	9606.75
223.617	9611.95
223.69	9646.23
223.763	9599.9
223.837	9627.3
223.91	9657.59
223.983	9602.32
224.056	9563.46
224.129	9586.86
224.202	9652.95
224.275	9640.48
224.348	9607.06
224.42	9565.79
224.493	9506.03
224.566	9482.71
224.639	9505.59
224.712	9472.44
224.785	9457.51
224.858	9445.33
224.931	9432.95
225.004	9385.38
225.077	9387.31
225.15	9298.59
225.223	9290.35
225.296	9384.59
225.369	9322.86
225.442	9290.5
225.514	9311.49
225.587	9334.55
225.66	9344.52
225.733	9340.09
225.806	9354.1
225.879	9350.39
225.952	9320.93
226.025	9366.96
226.097	9419.52
226.17	9404.88
226.243	9335.75
226.316	9329.92
226.389	9338.88
226.461	9357.52
226.534	9382.26
226.607	9370.9
226.68	9460.92
226.753	9462.36
226.825	9366.45
226.898	9431.25
226.971	9436.79
227.044	9458.65
227.117	9470.4
227.189	9488.56
227.262	9531
227.335	9547.28
227.407	9542.03
227.48	9578.18
227.553	9599.67
227.626	9581.45
227.698	9589.16
227.771	9630.12
227.844	9615.48
227.916	9632.96
227.989	9600.07
228.062	9600.89
228.134	9695.44
228.207	9697.27
228.28	9688.55
228.352	9703.96
228.425	9711.29
228.498	9762.82
228.57	9741.44
228.643	9795.5
228.716	9789.33
228.788	9769.82
228.861	9769.19
228.934	9832.76
229.006	9843.36
229.079	9845.91
229.151	9831.46
229.224	9796.55
229.296	9825.06
229.369	9935.15
229.442	9987.9
229.514	9965.08
229.587	10009.64
229.659	9931.89
229.732	9945.57
229.804	9989.2
229.877	10080.31
229.949	10111.77
230.022	10170.81
230.094	10167.44
230.167	10157.85
230.239	10115.08
230.312	10107.38
230.384	10176.67
230.457	10174.26
230.529	10180.13
230.602	10180.9
230.674	10188.61
230.747	10236.91
230.819	10273.37
230.892	10145.86
230.964	10146.05
231.037	10175.18
231.109	10160.2
231.181	10207.01
231.254	10172.23
231.326	10150.51
231.399	10121.06
231.471	10096.4
231.544	10005.04
231.616	10054.4
231.688	10064.28
231.761	10060.62
231.833	10048.34
231.905	9959.21
231.978	9961.57
232.05	9945.48
232.122	9948.08
232.195	9927.56
232.267	9965.67
232.339	9943.31
232.412	10012.38
232.484	9984.48
232.556	9959.2
232.629	10041.36
232.701	10051.72
232.773	10061.97
232.846	10056.77
232.918	10066.89
232.99	10076.48
233.062	10124.42
233.135	10141.57
233.207	10097.82
233.279	10139.33
233.351	10174.45
233.424	10181.96
233.496	10158.45
233.568	10257.41
233.64	10224.13
233.713	10237.13
233.785	10231.11
233.857	10240.07
233.929	10190.51
234.001	10260.67
234.074	10335.42
234.146	10249.65
234.218	10254.95
234.29	10256.06
234.362	10248.69
234.434	10201.23
234.507	10166.69
234.579	10109.99
234.651	10087.83
234.723	10124.05
234.795	10147.66
234.867	10141.88
234.939	10205.09
235.012	10227.2
235.084	10218.33
235.156	10255.76
235.228	10240.34
235.3	10228.01
235.372	10249.07
235.444	10312.94
235.516	10231.65
235.588	10239.4
235.66	10262.86
235.732	10235.84
235.804	10441.97
235.876	10487.78
235.948	10553.94
236.02	10574.21
236.092	10593.91
236.164	10610.44
236.236	10615.55
236.308	10614.58
236.38	10639.35
236.452	10616.6
236.524	10636.6
236.596	10714.06
236.668	10746.92
236.74	10767.1
236.812	10798.03
236.884	10828.25
236.956	10837.41
237.028	10833.26
237.1	10810.96
237.172	10891.24
237.244	10969.5
237.316	10848.94
237.388	10831.31
237.46	10808.37
237.532	10876.5
237.604	10868.65
237.675	10949.76
237.747	10996.31
237.819	10984.7
237.891	10997.37
237.963	10988.94
238.035	10987.83
238.107	10867.78
238.178	10942.58
238.25	10954.63
238.322	11050.74
238.394	11004.04
238.466	11004.19
238.538	11057.43
238.609	11106.43
238.681	11043.92
238.753	11025.99
238.825	11043.44
238.897	11084.35
238.968	11172.65
239.04	11148.84
239.112	11270.47
239.184	11228.44
239.255	11224.54
239.327	11261.98
239.399	11284.19
239.471	11337.01
239.542	11373.15
239.614	11456.28
239.686	11362.44
239.758	11421.72
239.829	11383.2
239.901	11454.77
239.973	11477.42
240.044	11507.64
240.116	11521.85
240.188	11538.09
240.259	11553.28
240.331	11542.87
240.403	11578.96
240.474	11526.71
240.546	11523.72
240.618	11456.34
240.689	11457.5
240.761	11476.68
240.833	11549.12
240.904	11554.04
240.976	11551.15
241.048	11574.09
241.119	11602.82
241.191	11652.84
241.262	11731.85
241.334	11738.98
241.405	11744.19
241.477	11744.77
241.549	11755.52
241.62	11784.77
241.692	11838.56
241.763	11905.85
241.835	11932.56
241.906	11944.94
241.978	11912.03
242.049	11982.73
242.121	12051.9
242.192	12124.87
242.264	12095.09
242.335	12049.2
242.407	12096.19
242.478	12106.65
242.55	12126.37
242.621	12119.28
242.693	12125.11
242.764	12111.13
242.836	12116
242.907	12151.62
242.979	12186.14
243.05	12210.38
243.122	12235.74
243.193	12237.62
243.264	12158.61
243.336	12166.42
243.407	12216.65
243.479	12309.87
243.55	12328.62
243.622	12345.64
243.693	12346.94
243.764	12423.58
243.836	12402.28
243.907	12389.02
243.978	12398.76
244.05	12430.91
244.121	12376.93
244.192	12420.5
244.264	12370.8
244.335	12384.83
244.407	12333.98
244.478	12357.84
244.549	12349.55
244.62	12305.15
244.692	12302.74
244.763	12355.96
244.834	12350.17
244.906	12322.31
244.977	12340.19
245.048	12399.1
245.119	12381.51
245.191	12354.95
245.262	12285.2
245.333	12367.38
245.405	12387.29
245.476	12422.81
245.547	12441.23
245.618	12503.12
245.689	12521.82
245.761	12561.83
245.832	12568.92
245.903	12611.14
245.974	12637.9
246.045	12649.8
246.117	12737.87
246.188	12721.1
246.259	12704.9
246.33	12719.7
246.401	12735.71
246.473	12704.32
246.544	12684.12
246.615	12744.04
246.686	12749.88
246.757	12832.79
246.828	12805.7
246.899	12882.34
246.97	12847.54
247.042	12835.3
247.113	12881.19
247.184	12975.91
247.255	12970.32
247.326	13005.13
247.397	13016.79
247.468	13024.79
247.539	13046.73
247.61	13004.02
247.681	13058.44
247.752	13111.71
247.823	13091.7
247.894	13111.27
247.965	13084.76
248.037	13072.27
248.108	13015.58
248.179	13023.1
248.25	13017.17
248.321	13045.28
248.392	13001.75
248.463	13086.39
248.534	13084.18
248.605	13101.97
248.675	13064.9
248.746	13086.64
248.817	13094.25
248.888	13120.86
248.959	13071.02
249.03	13098.69
249.101	13107.61
249.172	13090.06
249.243	13017.37
249.314	13081.1
249.385	13081.43
249.456	13112.43
249.527	13111.32
249.598	13137.26
249.669	13142.37
249.739	13153.55
249.81	13174.71
249.881	13122.89
249.952	13118.65
250.023	13113.3
250.094	13059.98
250.165	13033.03
250.235	13022.96
250.306	13034.72
250.377	13000.01
250.448	13029.66
250.519	12964.44
250.59	13030.53
250.66	13029.81
250.731	13109.82
250.802	13108.72
250.873	13134.94
250.944	13159.72
251.014	13152.63
251.085	13252.32
251.156	13278.55
251.227	13331.72
251.297	13384.41
251.368	13446.3
251.439	13488.68
251.51	13544.79
251.58	13536.59
251.651	13532.16
251.722	13594.39
251.792	13536.69
251.863	13541.75
251.934	13606.68
252.005	13726.28
252.075	13732.79
252.146	13787.02
252.217	13832.43
252.287	13877.31
252.358	13876.98
252.429	13954.59
252.499	13945.91
252.57	13951.6
252.641	14006.07
252.711	14015.81
252.782	13971.17
252.852	14052.3
252.923	14051.86
252.994	14064.3
253.064	14113.13
253.135	14097.76
253.205	14080.84
253.276	14168.57
253.347	14234.76
253.417	14211.86
253.488	14187.85
253.558	14170.21
253.629	14170.65
253.699	14192.96
253.77	14228.78
253.841	14230.66
253.911	14233.55
253.982	14253.08
254.052	14287.49
254.123	14293.18
254.193	14296.02
254.264	14443.38
254.334	14402.36
254.405	14371.26
254.475	14345.28
254.546	14352.85
254.616	14416.39
254.687	14453.55
254.757	14474.14
254.827	14479.78
254.898	14512.27
254.968	14518.24
255.039	14506.24
255.109	14544.23
255.18	14505.42
255.25	14426.9
255.321	14459.29
255.391	14423.23
255.461	14518.73
255.532	14428.97
255.602	14424.87
255.673	14363.03
255.743	14329.91
255.813	14258.86
255.884	14310.97
255.954	14347.56
256.024	14417.84
256.095	14423
256.165	14380.91
256.235	14408.15
256.306	14395.57
256.376	14433.02
256.446	14478.48
256.517	14503.69
256.587	14546.06
256.657	14573.83
256.728	14600.1
256.798	14617.16
256.868	14604.44
256.938	14566.4
257.009	14619.38
257.079	14655.63
257.149	14756.72
257.219	14679.21
257.29	14730.26
257.36	14670.72
257.43	14718.83
257.5	14649.08
257.571	14641.41
257.641	14684.75
257.711	14645.27
257.781	14676.75
257.852	14700.66
257.922	14646.57
257.992	14659.68
258.062	14659.11
258.132	14699.21
258.202	14707.16
258.273	14718.01
258.343	14805.55
258.413	14796.15
258.483	14806.66
258.553	14774.17
258.623	14766.4
258.693	14803.81
258.764	14862.86
258.834	14934.88
258.904	14946.16
258.974	14938.64
259.044	14952.19
259.114	14975.52
259.184	15008.34
259.254	15018.66
259.324	14962.07
259.394	15004.63
259.464	15093.71
259.535	15104.12
259.605	15101.56
259.675	15100.5
259.745	15139.4
259.815	15110.63
259.885	15109.47
259.955	15216.23
260.025	15214.97
260.095	15219.65
260.165	15263.99
260.235	15329.35
260.305	15314.41
260.375	15283.27
260.445	15381.9
260.515	15441.62
260.585	15496.13
260.655	15500.08
260.725	15546.26
260.795	15586.7
260.865	15658.76
260.934	15619.09
261.004	15645.65
261.074	15646.13
261.144	15697.42
261.214	15729.19
261.284	15732.41
261.354	15775.17
261.424	15727.94
261.494	15799.86
261.564	15800.78
261.634	15822.27
261.703	15760
261.773	15791.57
261.843	15830.85
261.913	15815.77
261.983	15761.35
262.053	15780.92
262.123	15782.07
262.192	15739.95
262.262	15782.65
262.332	15734.31
262.402	15773.45
262.472	15781.98
262.541	15723.46
262.611	15785.83
262.681	15758.02
262.751	15802.17
262.821	15814.41
262.89	15784.24
262.96	15812.68
263.03	15902.27
263.1	15918.18
263.169	15940.01
263.239	15973.32
263.309	16045.61
263.379	16075.4
263.448	16094.78
263.518	16119.98
263.588	16136.52
263.657	16208.29
263.727	16252.63
263.797	16263.33
263.867	16263.61
263.936	16227.9
264.006	16290.81
264.076	16277.31
264.145	16284.64
264.215	16268.06
264.285	16313.41
264.354	16264.63
264.424	16244.92
264.494	16189.54
264.563	16181.93
264.633	16261.98
264.702	16279.57
264.772	16213.83
264.842	16215.91
264.911	16253.02
264.981	16210.71
265.05	16231.38
265.12	16230.47
265.19	16240.49
265.259	16285.85
265.329	16312.98
265.398	16333.75
265.468	16440.17
265.537	16432.22
265.607	16472.51
265.676	16525.38
265.746	16535.94
265.815	16615.42
265.885	16623.18
265.955	16604.96
266.024	16606.98
266.094	16541.44
266.163	16607.61
266.232	16687.13
266.302	16697.01
266.371	16725.93
266.441	16750.65
266.51	16794.65
266.58	16793.64
266.649	16773.93
266.719	16832.97
266.788	16868.05
266.858	16951.09
266.927	16878.46
266.996	16908.06
267.066	16925.45
267.135	16893.31
267.205	16948.44
267.274	16961.79
267.343	17018.9
267.413	17040.83
267.482	17105.75
267.552	17174.28
267.621	17123.25
267.69	17070.19
267.76	17099.39
267.829	17122.38
267.898	17135.87
267.968	17113.8
268.037	17159.88
268.106	17216.74
268.176	17185.85
268.245	17196.16
268.314	17187.44
268.384	17254.38
268.453	17283.01
268.522	17319.97
268.592	17385.66
268.661	17364.94
268.73	17385.95
268.799	17374.1
268.869	17459.55
268.938	17408.36
269.007	17393.62
269.076	17430.15
269.146	17484.9
269.215	17518.82
269.284	17597.28
269.353	17598.34
269.422	17609.33
269.492	17606.34
269.561	17525.66
269.63	17555.06
269.699	17550.15
269.768	17563.54
269.838	17573.28
269.907	17616.6
269.976	17577.95
270.045	17517.81
270.114	17562.62
270.183	17581.03
270.253	17616.7
270.322	17565.8
270.391	17597.32
270.46	17671.44
270.529	17707.87
270.598	17754.96
270.667	17764.3
270.736	17734.28
270.806	17766.38
270.875	17827.34
270.944	17837.9
271.013	17968.88
271.082	17999.1
271.151	18031.53
271.22	17991.48
271.289	18014.61
271.358	18017.26
271.427	18059.43
271.496	18091.38
271.565	18081.94
271.634	18105.79
271.703	18245.5
271.772	18312.92
271.841	18319.14
271.91	18284.44
271.979	18310.8
272.048	18278.42
272.117	18325.64
272.186	18325.4
272.255	18379.76
272.324	18429.88
272.393	18471.03
272.462	18457.97
272.531	18474.41
272.6	18491.9
272.669	18573.44
272.738	18580.67
272.807	18614.78
272.876	18600.57
272.945	18750.01
273.013	18807.02
273.082	18869.18
273.151	18761.33
273.22	18801.28
273.289	18833.91
273.358	18926.96
273.427	18923.88
273.496	18979.2
273.564	19013.7
273.633	19067.43
273.702	19052.64
273.771	19061.17
273.84	19085.94
273.909	19132.06
273.977	19173.21
274.046	19185.69
274.115	19243.76
274.184	19239.38
274.253	19252.24
274.322	19334.5
274.39	19262.36
274.459	19264.77
274.528	19222.36
274.597	19249.3
274.665	19279.28
274.734	19351.71
274.803	19351.47
274.872	19385.87
274.94	19373.78
275.009	19608.85
275.078	19598.58
275.147	19632.7
275.215	19653.61
275.284	19725.76
275.353	19729.9
275.421	19697.76
275.49	19802.09
275.559	19812.98
275.627	19849.27
275.696	19877.51
275.765	19924.16
275.833	19956.78
275.902	20000.64
275.971	20077.79
276.039	20177.6
276.108	20231.33
276.177	20273.31
276.245	20288.83
276.314	20311.14
276.383	20385.83
276.451	20209.75
276.52	20276.69
276.588	20363.63
276.657	20428.69
276.725	20433.71
276.794	20480.94
276.863	20562.86
276.931	20519.15
277	20584.89
277.068	20657.46
277.137	20761.18
277.205	20786.58
277.274	20889.96
277.342	20959.41
277.411	20942.64
277.48	20937.77
277.548	20937.24
277.617	20971.51
277.685	20990.26
277.754	21054.64
277.822	21070.89
277.89	21160.4
277.959	21176.16
278.027	21157.12
278.096	21166.04
278.164	21304.77
278.233	21320.2
278.301	21322.12
278.37	21387.19
278.438	21391.38
278.507	21445.41
278.575	21396.68
278.643	21431.82
278.712	21404.59
278.78	21403.33
278.849	21482.13
278.917	21555.84
278.985	21593.72
279.054	21648.1
279.122	21731.14
279.191	21768.94
279.259	21804.51
279.327	21771.14
279.396	21865.24
279.464	21897.1
279.532	21963.86
279.601	21988.9
279.669	22016.27
279.737	22115.62
279.806	22173.18
279.874	22235.18
279.942	22267.04
280.011	22295.05
280.079	22365.14
280.147	22462.86
280.215	22522.06
280.284	22559.75
280.352	22564.05
280.42	22638.44
280.488	22650.39
280.557	22671.94
280.625	22723.15
280.693	22764.75
280.761	22815.61
280.83	22805.73
280.898	22890.82
280.966	22864.11
281.034	22792.5
281.102	22797.71
281.171	22818.06
281.239	22889.58
281.307	22906.12
281.375	22915.47
281.443	23061.39
281.512	23093.7
281.58	23171.78
281.648	23154.67
281.716	23191.79
281.784	23231.48
281.852	23249.46
281.92	23293.63
281.989	23374.27
282.057	23352.09
282.125	23561.83
282.193	23603.4
282.261	23654.32
282.329	23684.37
282.397	23754.33
282.465	23807.37
282.533	23900.04
282.601	23906.31
282.67	23867.19
282.738	23885.62
282.806	23975.22
282.874	23967.31
282.942	24023.65
283.01	24039.77
283.078	24119.1
283.146	24152.33
283.214	24224.25
283.282	24275.72
283.35	24365.22
283.418	24389.1
283.486	24457.67
283.554	24338.6
283.622	24381.87
283.69	24427.36
283.758	24457.31
283.826	24519.74
283.894	24609.08
283.962	24725.33
284.03	24821.67
284.098	24870.78
284.165	24904.73
284.233	24943.62
284.301	24969
284.369	24980.87
284.437	24994.67
284.505	25027.53
284.573	25141.31
284.641	25150.24
284.709	25222.49
284.777	25205.16
284.845	25281.04
284.912	25345.5
284.98	25403.65
285.048	25430.53
285.116	25497.37
285.184	25593.61
285.252	25637.05
285.319	25623.92
285.387	25634.26
285.455	25628.47
285.523	25711.53
285.591	25754.61
285.659	25809.69
285.726	25895.62
285.794	25895.28
285.862	25940.46
285.93	25986.17
285.997	26005.67
286.065	26043.56
286.133	26062.64
286.201	26105.3
286.269	26107.43
286.336	26124.52
286.404	26158.5
286.472	26247.15
286.539	26219.78
286.607	26207.18
286.675	26248.6
286.743	26327.63
286.81	26355.88
286.878	26456.66
286.946	26468.39
287.013	26521.29
287.081	26561.23
287.149	26552.01
287.216	26666.5
287.284	26682.91
287.352	26721.25
287.419	26747.19
287.487	26839.82
287.555	26889.24
287.622	26918.11
287.69	26973.28
287.758	27064.03
287.825	27100.73
287.893	27095.03
287.96	27162.53
288.028	27246.87
288.096	27301.84
288.163	27361.61
288.231	27373.49
288.298	27410.79
288.366	27504.86
288.433	27537.56
288.501	27556.83
288.569	27617.31
288.636	27635.77
288.704	27739.12
288.771	27822.42
288.839	27839.09
288.906	27849.24
288.974	27932.63
289.041	27980.69
289.109	27984.46
289.176	28055.28
289.244	28105.82
289.311	28190.63
289.379	28269.64
289.446	28316.14
289.514	28365.01
289.581	28407.07
289.649	28465.16
289.716	28506.54
289.783	28519.06
289.851	28633.42
289.918	28673.67
289.986	28742.32
290.053	28805.46
290.121	28840.96
290.188	28884.62
290.255	29038.78
290.323	29069.72
290.39	29084.95
290.458	29156.98
290.525	29255.51
290.592	29283.81
290.66	29347.34
290.727	29386.76
290.794	29479.68
290.862	29524.95
290.929	29572.69
290.996	29619.31
291.064	29694.23
291.131	29777.01
291.198	29868.39
291.266	29906.51
291.333	29966.82
291.4	30037.89
291.468	30144.41
291.535	30178.71
291.602	30234.98
291.669	30242.92
291.737	30308.55
291.804	30354.23
291.871	30454.5
291.938	30524
292.006	30670.08
292.073	30752.54
292.14	30833.32
292.207	30850.94
292.275	30903.59
292.342	30979.63
292.409	31109.3
292.476	31226.62
292.543	31245.31
292.611	31286.61
292.678	31399.04
292.745	31523.65
292.812	31606.51
292.879	31631.31
292.946	31681.46
293.014	31774.29
293.081	31843.97
293.148	31933.25
293.215	32030.49
293.282	32047.44
293.349	32120.68
293.416	32091.66
293.484	32170.95
293.551	32242.26
293.618	32345.13
293.685	32475.46
293.752	32510.34
293.819	32554.39
293.886	32569.12
293.953	32634.95
294.02	32720.12
294.087	32768.88
294.154	32795.28
294.221	32883.41
294.288	32934.63
294.356	33047.08
294.423	33108.63
294.49	33136.39
294.557	33229.3
294.624	33250.96
294.691	33376.72
294.758	33433.87
294.825	33500.12
294.892	33530.61
294.959	33589.46
295.026	33664.36
295.093	33684
295.16	33731.83
295.226	33781.43
295.293	33912.95
295.36	33988.86
295.427	34073.62
295.494	34157.82
295.561	34243.2
295.628	34366.01
295.695	34466.48
295.762	34534.67
295.829	34622.12
295.896	34734.13
295.963	34817.7
296.03	34895.57
296.096	34959.12
296.163	35053.04
296.23	35171.3
296.297	35271.55
296.364	35318.88
296.431	35393.16
296.498	35440.41
296.564	35593.35
296.631	35651.37
296.698	35641.66
296.765	35753.98
296.832	35776.69
296.899	35792.99
296.965	35909.65
297.032	35890.77
297.099	36010.37
297.166	36087.57
297.233	36124.36
297.299	36155.46
297.366	36211.71
297.433	36283.96
297.5	36369.92
297.566	36413.61
297.633	36456.71
297.7	36517.96
297.767	36572.26
297.833	36643.92
297.9	36718.56
297.967	36701.62
298.033	36800.26
298.1	36964.75
298.167	37003.68
298.234	37083.63
298.3	37183.87
298.367	37209.16
298.434	37294.48
298.5	37305.94
298.567	37345.84
298.634	37401.58
298.7	37514.06
298.767	37559.12
298.834	37655.84
298.9	37694.01
298.967	37719.84
299.033	37799.14
299.1	37908.12
299.167	38011.88
299.233	38042.86
299.3	38130.8
299.366	38247.96
299.433	38339.09
299.5	38293.87
299.566	38352.05
299.633	38453.65
299.699	38537.25
299.766	38577.75
299.832	38627.69
299.899	38702.2
299.965	38794.87
300.032	38822.41
300.099	38891.58
300.165	38974.74
300.232	39004.57
300.298	39047.94
300.365	39161.31
300.431	39224.08
300.498	39241.19
300.564	39308.57
300.631	39385.52
300.697	39469.86
300.763	39493.28
300.83	39529.04
300.896	39622.02
300.963	39698.1
301.029	39757.68
301.096	39817.16
301.162	39894.4
301.229	39933.03
301.295	39949.65
301.361	40013.31
301.428	40088.5
301.494	40085.01
301.561	40138.7
301.627	40209.88
301.693	40267.41
301.76	40315.23
301.826	40338.27
301.892	40432.6
301.959	40508.41
302.025	40552.44
302.092	40584.42
302.158	40683.99
302.224	40732.21
302.291	40752.95
302.357	40798.2
302.423	40828.09
302.49	40837.43
302.556	40929.1
302.622	40982.51
302.688	41072.28
302.755	41154.97
302.821	41219.41
302.887	41312.04
302.954	41360.26
303.02	41442.02
303.086	41516.88
303.152	41553.38
303.219	41590.81
303.285	41651.29
303.351	41716.44
303.417	41764.28
303.483	41779.78
303.55	41799.52
303.616	41851.64
303.682	41896.26
303.748	41917.89
303.815	42009.64
303.881	42094.52
303.947	42100.41
304.013	42146.69
304.079	42164.82
304.145	42148.39
304.212	42200.94
304.278	42219.32
304.344	42254.95
304.41	42256.51
304.476	42263.51
304.542	42286.46
304.608	42357.25
304.674	42341.59
304.741	42359.29
304.807	42420.37
304.873	42493.2
304.939	42594.44
305.005	42571.59
305.071	42618.36
305.137	42667.95
305.203	42632.01
305.269	42673.31
305.335	42753.8
305.401	42792.36
305.467	42824.01
305.533	42888.01
305.599	42965.1
305.666	43031.04
305.732	43074.08
305.798	43152.86
305.864	43291.3
305.93	43368.43
305.996	43408.41
306.062	43452.67
306.128	43477.03
306.194	43491.67
306.259	43531.41
306.325	43533.6
306.391	43623.28
306.457	43706.11
306.523	43761.27
306.589	43885.12
306.655	43904.29
306.721	43884.88
306.787	43894.75
306.853	43986.99
306.919	43965.05
306.985	43961.11
307.051	43988.74
307.117	44003.24
307.183	44024.5
307.248	43962.22
307.314	44008.24
307.38	44061.81
307.446	44129.24
307.512	44143.89
307.578	44192.73
307.644	44218.27
307.709	44273.5
307.775	44302.3
307.841	44325.46
307.907	44371.1
307.973	44340.73
308.039	44368.27
308.104	44432.1
308.17	44480.02
308.236	44466.49
308.302	44539.61
308.368	44553.13
308.433	44589.14
308.499	44610.2
308.565	44617.55
308.631	44680.61
308.696	44653.17
308.762	44647.38
308.828	44678.72
308.894	44672.11
308.959	44636.3
309.025	44653.77
309.091	44671.48
309.156	44685.35
309.222	44731.64
309.288	44728.38
309.354	44706.58
309.419	44756.28
309.485	44763.77
309.551	44818.13
309.616	44832.2
309.682	44857.8
309.748	44876.43
309.813	44915.9
309.879	44939.55
309.945	44943.83
310.01	44962.43
310.076	45016.73
310.141	45033.43
310.207	45016.1
310.273	45054.15
310.338	45113.56
310.404	45084.02
310.469	45080.71
310.535	45082.66
310.601	45040.22
310.666	45094.59
310.732	45174.25
310.797	45166.85
310.863	45158.82
310.928	45161.31
310.994	45198.2
311.059	45222.44
311.125	45268.34
311.191	45324.68
311.256	45332.47
311.322	45388
311.387	45352.76
311.453	46167.25
311.518	46213.1
311.584	46246.99
311.649	46306.42
311.715	46314.21
311.78	46370.51
311.846	46374.06
311.911	46447.49
311.976	46493.63
312.042	46483.69
312.107	46460.33
312.173	46467.29
312.238	46490.07
312.304	46521.86
312.369	46533.31
312.434	46543.92
312.5	46533.45
312.565	46451.95
312.631	46492.44
312.696	46498.92
312.761	46545.65
312.827	45773.52
312.892	45858.34
312.958	45887.66
313.023	45916
313.088	45960.89
313.154	45942.54
313.219	45948.82
313.284	45944.04
313.35	45968.78
313.415	45963.72
313.48	45988.69
313.546	46036.36
313.611	46098.25
313.676	46101.56
313.741	46107.75
313.807	46159.42
313.872	46226.76
313.937	46284.06
314.003	46359.36
314.068	46399.2
314.133	46460.37
314.198	46440.01
314.264	46407.22
314.329	46413.6
314.394	46428.26
314.459	46433.32
314.525	46554.34
314.59	46581.94
314.655	46574.01
314.72	46626.23
314.785	46674.97
314.851	46684.51
314.916	46660.45
314.981	46639.46
315.046	46628.65
315.111	46619.79
315.176	46607.02
315.242	46637.08
315.307	46681.17
315.372	46648.62
315.437	46651.79
315.502	46648.53
315.567	46726.95
315.632	46694.75
315.698	46736.01
315.763	46763.89
315.828	46766.37
315.893	46752.63
315.958	46756.04
316.023	46748.73
316.088	46706.06
316.153	46648.99
316.218	46657.85
316.283	46606.15
316.348	46575.43
316.413	46588.67
316.479	46552.02
316.544	46441.36
316.609	46335.93
316.674	46193.97
316.739	46077.53
316.804	45953.73
316.869	45818.69
316.934	45664.93
316.999	45553.02
317.064	45354.89
317.129	45177.44
317.194	45024.78
317.259	44850.17
317.324	44658.23
317.389	44473.15
317.454	44298.75
317.518	44158.98
317.583	44024.57
317.648	43910.3
317.713	43735.85
317.778	43494.65
317.843	43349.6
317.908	43185.24
317.973	43014.37
318.038	42878.99
318.103	42698.36
318.168	42538.38
318.233	42380.45
318.297	42171.92
318.362	41987.26
318.427	41789.13
318.492	41644.83
318.557	41429.18
318.622	41272.78
318.687	41140.25
318.751	40949.71
318.816	40784.21
318.881	40595.17
318.946	40347.99
319.011	40120.13
319.075	39916.11
319.14	39721.49
319.205	39499.74
319.27	39301.65
319.335	39066.88
319.399	38848.63
319.464	38678.19
319.529	38425.9
319.594	38207.63
319.658	38034.56
319.723	37799.73
319.788	37621.55
319.853	37344.09
319.917	37159.89
319.982	36885.87
320.047	36667.85
320.112	36495.06
320.176	36215.62
320.241	35996.89
320.306	35792.3
320.37	35565.82
320.435	35364.43
320.5	35165.68
320.564	34932.81
320.629	34692.3
320.694	34496.91
320.758	34261.29
320.823	34018.02
320.888	33821.07
320.952	33565.96
321.017	33308.92
321.082	33085.47
321.146	32867.19
321.211	32652.6
321.275	32412.82
321.34	32163.21
321.405	31894.65
321.469	31623.5
321.534	31390.18
321.598	31115.08
321.663	30906.32
321.727	30692.17
321.792	30426.56
321.857	30177.62
321.921	29947.66
321.986	29708.57
322.05	29408.24
322.115	29178.27
322.179	28918.09
322.244	28623.29
322.308	28405.51
322.373	28145.55
322.437	27897.68
322.502	27698.44
322.566	27430.87
322.631	27194.27
322.695	26947.64
322.76	26699.96
322.824	26475.36
322.889	26216.19
322.953	25967.52
323.018	25635.99
323.082	25298.17
323.146	25006.58
323.211	24716.24
323.275	24442.7
323.34	24173.49
323.404	23937.21
323.468	23657.09
323.533	23395.79
323.597	23123.28
323.662	22821.64
323.726	22584.54
323.79	22308.03
323.855	21952.47
323.919	21674.88
323.983	21413.2
324.048	21010.64
324.112	21182.14
324.177	20348.31
324.241	19246.3
324.305	18153.64
324.37	17080.22
324.434	16049.18
324.498	15763.2
324.562	15444.65
324.627	15082.79
324.691	14725.86
324.755	14319.01
324.82	13863.65
324.884	13368.68
324.948	12889.73
325.012	12299.09
325.077	11560.57
