Data from 20250701_urea_2M_exp3_MAYP1162681_04-59-49-058.txt Node
Date: Wed Jul 02 04:59:49 BST 2025
User: adleo
Spectrometer: MAYP116268
Trigger mode: 0
Integration Time (sec): 4.000000E0
Scans to average: 1
Electric dark correction enabled: true
Nonlinearity correction enabled: true
Boxcar width: 10
XAxis mode: Wavelengths
Number of Pixels in Spectrum: 2068
>>>>>Begin Spectral Data<<<<<
179.565	3569.43
179.642	3758.77
179.718	3908.36
179.795	4036.5
179.871	4150.99
179.948	4214.17
180.024	4285.37
180.101	4360.4
180.177	4409.74
180.254	4488.78
180.33	4565.47
180.407	4826.18
180.483	5111.11
180.56	5397.09
180.636	5656.95
180.712	5620.82
180.789	5656.26
180.865	5699.1
180.942	5730.59
181.018	5773.08
181.095	5817.24
181.171	5841.07
181.248	5841.26
181.324	5894.39
181.4	5920.11
181.477	5953.65
181.553	5997.52
181.63	6069.69
181.706	6127.82
181.782	6158.26
181.859	6157.92
181.935	6171.8
182.011	6160.95
182.088	6213.75
182.164	6278.06
182.24	6325.98
182.317	6352.75
182.393	6348.68
182.469	6392.35
182.546	6437.57
182.622	6449.42
182.698	6437.61
182.775	6475.2
182.851	6528.15
182.927	6500.35
183.003	6485.67
183.08	6466.13
183.156	6497.63
183.232	6486.15
183.308	6439.58
183.385	6465.02
183.461	6517.35
183.537	6524.22
183.613	6567.58
183.69	6539.73
183.766	6503.64
183.842	6527.8
183.918	6548.4
183.995	6592.76
184.071	6600.64
184.147	6585.61
184.223	6551.01
184.299	6593.28
184.375	6551.66
184.452	6571.7
184.528	6698.23
184.604	6735.96
184.68	6777.01
184.756	6800.31
184.832	6813.71
184.908	6836.55
184.985	6831.37
185.061	6780.28
185.137	6805.5
185.213	6763.96
185.289	6761.8
185.365	6737.89
185.441	6731.17
185.517	6774.76
185.593	6762.36
185.669	6759.82
185.745	6792
185.822	6847.44
185.898	6820.29
185.974	6852.36
186.05	6827.13
186.126	6749.97
186.202	6725.49
186.278	6715.59
186.354	6680.29
186.43	6701.38
186.506	6701.24
186.582	6703.3
186.658	6725.57
186.734	6666.71
186.81	6677.9
186.886	6693.5
186.962	6728.65
187.038	6716.64
187.114	6691.4
187.19	6717.97
187.266	6685.71
187.341	6687.82
187.417	6660.36
187.493	6654.02
187.569	6669.34
187.645	6645.38
187.721	6609.21
187.797	6635.23
187.873	6642.48
187.949	6626.26
188.025	6602.32
188.101	6607.8
188.176	6621.87
188.252	6608.57
188.328	6631.79
188.404	6629.44
188.48	6605.68
188.556	6586.9
188.632	6584.21
188.707	6585.13
188.783	6572.87
188.859	6557.95
188.935	6520.92
189.011	6551.7
189.086	6530.48
189.162	6501.43
189.238	6496.44
189.314	6487.22
189.39	6473.34
189.465	6452.5
189.541	6509.65
189.617	6460.83
189.693	6446.67
189.768	6464.83
189.844	6548.58
189.92	6525.21
189.996	6554.94
190.071	6598.63
190.147	6594.94
190.223	6627.79
190.298	6600.22
190.374	6556.77
190.45	6598.72
190.526	6628.25
190.601	6602.85
190.677	6610.77
190.753	6703.77
190.828	6715.43
190.904	6765.82
190.98	6814.15
191.055	6853.45
191.131	6819.19
191.207	6890.07
191.282	6923.63
191.358	6886.8
191.433	6833.2
191.509	6875.58
191.585	6862.42
191.66	6865.3
191.736	6893.45
191.811	6860.25
191.887	6920.61
191.963	7001.22
192.038	7014.96
192.114	7013.08
192.189	7030.61
192.265	7019.95
192.34	6946.16
192.416	6940.25
192.491	6922.47
192.567	6930.74
192.642	6937.71
192.718	6944.82
192.793	6899.95
192.869	6879.16
192.944	6894.04
193.02	6924.99
193.095	6938.49
193.171	6963.61
193.246	6962.89
193.322	6952.47
193.397	6959.38
193.473	6910.5
193.548	6851.59
193.624	6872.64
193.699	6865.48
193.775	6914.6
193.85	6918.01
193.925	6946.74
194.001	6945.16
194.076	6924.84
194.152	6887.69
194.227	6863.08
194.302	6828.86
194.378	6847.2
194.453	6838.7
194.529	6881.85
194.604	6829.25
194.679	6806.77
194.755	6737.35
194.83	6774.46
194.905	6768.22
194.981	6794.88
195.056	6768.57
195.131	6788.07
195.207	6784.8
195.282	6754.31
195.357	6695.58
195.433	6747.26
195.508	6705.13
195.583	6733.99
195.659	6782.9
195.734	6808.32
195.809	6806.64
195.884	6838.81
195.96	6840.2
196.035	6889.53
196.11	6861.56
196.185	6901.76
196.261	6919.63
196.336	7029.15
196.411	6982.23
196.486	7000.39
196.561	6978.1
196.637	7009.79
196.712	7058.25
196.787	7060.36
196.862	7115.98
196.937	7143.65
197.013	7159.18
197.088	7194.29
197.163	7265.65
197.238	7318.32
197.313	7312.08
197.388	7358.84
197.464	7452.85
197.539	7487.88
197.614	7466.11
197.689	7513.8
197.764	7567.9
197.839	7628.28
197.914	7602.75
197.989	7675.01
198.065	7724.87
198.14	7899.58
198.215	7986.72
198.29	8023.1
198.365	8071.72
198.44	8107.59
198.515	8201.69
198.59	8256.24
198.665	8342.78
198.74	8367.08
198.815	8375.65
198.89	8449.73
198.965	8545.41
199.04	8534.06
199.115	8583.6
199.19	8722.11
199.265	8732.84
199.34	8765.85
199.415	8875.3
199.49	8946.98
199.565	8976.34
199.64	9048.4
199.715	9028.98
199.79	9047.56
199.865	9074.04
199.94	9061.82
200.015	9163.75
200.09	9183.87
200.165	9208.09
200.24	9227.97
200.315	9356.7
200.39	9399.07
200.464	9421.65
200.539	9422.28
200.614	9475.18
200.689	9551.65
200.764	9578.39
200.839	9636.15
200.914	9654.06
200.989	9620.77
201.063	9668.78
201.138	9612.58
201.213	9612.29
201.288	9547.24
201.363	9566.55
201.438	9568.28
201.512	9632.64
201.587	9574.07
201.662	9586.07
201.737	9623.58
201.812	9654.8
201.886	9543.26
201.961	9576.36
202.036	9537.27
202.111	9526.34
202.186	9432.01
202.26	9378.12
202.335	9305.02
202.41	9280.37
202.485	9217.84
202.559	9146.16
202.634	9059.46
202.709	9091.06
202.784	9029.88
202.858	9034.16
202.933	8970.62
203.008	8941.26
203.082	8870.6
203.157	8866.17
203.232	8722.09
203.306	8650.34
203.381	8542.37
203.456	8469.46
203.53	8390.77
203.605	8327.39
203.68	8252.83
203.754	8228.31
203.829	8178.27
203.904	8109.62
203.978	8070.7
204.053	8089.08
204.127	8054.21
204.202	8044.06
204.277	7984.95
204.351	7962.97
204.426	7934.87
204.5	7907.31
204.575	7797.94
204.65	7830.03
204.724	7809.24
204.799	7837.93
204.873	7820.89
204.948	7814.35
205.022	7773.84
205.097	7749.1
205.171	7789.34
205.246	7817.97
205.32	7815.71
205.395	7809.84
205.469	7783.22
205.544	7799.24
205.618	7742.21
205.693	7777.22
205.767	7741.54
205.842	7812.92
205.916	7791.86
205.991	7760.84
206.065	7780.18
206.14	7832.93
206.214	7817.48
206.289	7785.34
206.363	7821.84
206.438	7833
206.512	7853.11
206.586	7918.25
206.661	7946.94
206.735	7878.93
206.81	7875.37
206.884	7923.11
206.958	7884.74
207.033	7941.03
207.107	7970
207.181	8072.39
207.256	8053.39
207.33	8116.64
207.405	8159.73
207.479	8219.9
207.553	8245.05
207.628	8193.08
207.702	8225.5
207.776	8203.85
207.851	8218.86
207.925	8269.58
207.999	8258.66
208.073	8254.09
208.148	8261.93
208.222	8223.63
208.296	8329.26
208.371	8384.29
208.445	8420.58
208.519	8511.68
208.593	8548.06
208.668	8538.76
208.742	8546.76
208.816	8551.42
208.89	8592.25
208.965	8587.48
209.039	8619.3
209.113	8677.15
209.187	8745.33
209.261	8734.75
209.336	8803.13
209.41	8869.46
209.484	8866.91
209.558	8941.48
209.632	8985.85
209.707	9022.62
209.781	9094.49
209.855	9146.35
209.929	9200.88
210.003	9229.1
210.077	9224.81
210.151	9385.38
210.226	9492.12
210.3	9585.4
210.374	9664.14
210.448	9681.82
210.522	9711.15
210.596	9743.71
210.67	9773.95
210.744	9927.6
210.818	10036.59
210.892	10106.54
210.966	10085.4
211.041	10141.22
211.115	10122.83
211.189	10198.35
211.263	10254.84
211.337	10272.38
211.411	10320.07
211.485	10300.27
211.559	10327.05
211.633	10334.94
211.707	10229.94
211.781	10249.56
211.855	10125.6
211.929	10093.1
212.003	10024.06
212.077	10056.83
212.151	10095.66
212.225	10123.02
212.299	10082.16
212.373	10039.96
212.447	10015.2
212.52	10112.17
212.594	10114.38
212.668	10155.04
212.742	10103.59
212.816	10080.61
212.89	10059.47
212.964	10045.78
213.038	10054.36
213.112	10090.44
213.186	10140.14
213.26	10059.07
213.333	9908.32
213.407	9916.17
213.481	9923.3
213.555	9960.55
213.629	9909
213.703	9839.1
213.777	9821.66
213.85	9753.94
213.924	9853.76
213.998	9843.21
214.072	9805.87
214.146	9755.92
214.219	9732.41
214.293	9718.88
214.367	9711.46
214.441	9735.06
214.515	9688.82
214.588	9596.06
214.662	9475.1
214.736	9390.94
214.81	9409.17
214.883	9429.09
214.957	9383.37
215.031	9330.29
215.105	9237.69
215.178	9177.8
215.252	9149.73
215.326	9053.93
215.4	8970.25
215.473	8794.54
215.547	8712.4
215.621	8647.52
215.694	8638.91
215.768	8546.98
215.842	8476.34
215.915	8409.23
215.989	8295.73
216.063	8236.18
216.136	8216.07
216.21	8191.73
216.284	8200.83
216.357	8171.96
216.431	8121.64
216.504	8119.57
216.578	8172.6
216.652	8184.33
216.725	8157.34
216.799	8157.63
216.873	8137.04
216.946	8141.03
217.02	8102.25
217.093	8066.89
217.167	7973.82
217.24	7896.6
217.314	7864.2
217.387	7817.73
217.461	7770.21
217.535	7790.7
217.608	7728.96
217.682	7698.66
217.755	7709.19
217.829	7651.47
217.902	7634.93
217.976	7621.42
218.049	7573.1
218.123	7490.35
218.196	7484.78
218.27	7452.03
218.343	7377.15
218.417	7370.8
218.49	7348.01
218.563	7392.77
218.637	7403.3
218.71	7472.69
218.784	7499.14
218.857	7525.09
218.931	7545.7
219.004	7550.94
219.077	7564.75
219.151	7581.76
219.224	7579.07
219.298	7572.87
219.371	7621.49
219.444	7585.16
219.518	7588.96
219.591	7607.89
219.665	7719.48
219.738	7732.66
219.811	7717.76
219.885	7770.27
219.958	7808.22
220.031	7813.02
220.105	7830.96
220.178	7840.63
220.251	7814.27
220.325	7833.42
220.398	7851.64
220.471	7876.49
220.544	7913.77
220.618	7889.47
220.691	7916.93
220.764	7930.4
220.838	7962.82
220.911	7947.61
220.984	8035.52
221.057	8075.05
221.131	8095.77
221.204	7995.48
221.277	8067.12
221.35	8183.92
221.424	8174.45
221.497	8187.68
221.57	8210.27
221.643	8235.39
221.716	8279.71
221.79	8284.19
221.863	8295.4
221.936	8298.05
222.009	8317.09
222.082	8347.84
222.155	8359.1
222.229	8420.8
222.302	8450.77
222.375	8451.97
222.448	8494.27
222.521	8497.74
222.594	8500.72
222.667	8478.75
222.74	8533.3
222.814	8530.07
222.887	8517.65
222.96	8573.33
223.033	8611.51
223.106	8637.43
223.179	8671.67
223.252	8684.23
223.325	8715.84
223.398	8731.59
223.471	8765.37
223.544	8779.9
223.617	8793.9
223.69	8818.92
223.763	8785.37
223.837	8813.53
223.91	8839.09
223.983	8789.38
224.056	8754.64
224.129	8770.52
224.202	8823.29
224.275	8810
224.348	8777.81
224.42	8743.53
224.493	8681.45
224.566	8654.64
224.639	8673.02
224.712	8651.21
224.785	8634.5
224.858	8624.01
224.931	8602.01
225.004	8562.89
225.077	8562.41
225.15	8467.16
225.223	8464.8
225.296	8543.58
225.369	8480.69
225.442	8449.31
225.514	8467.78
225.587	8487.32
225.66	8495.84
225.733	8502.57
225.806	8516.39
225.879	8509.94
225.952	8477.57
226.025	8529.73
226.097	8578.89
226.17	8569.6
226.243	8499.07
226.316	8492.62
226.389	8496.52
226.461	8520.92
226.534	8542.91
226.607	8535.6
226.68	8620.4
226.753	8617.03
226.825	8540.56
226.898	8598.11
226.971	8604.65
227.044	8620.05
227.117	8631.46
227.189	8644.65
227.262	8675.51
227.335	8697.89
227.407	8687.12
227.48	8723.53
227.553	8728.25
227.626	8709.18
227.698	8715.72
227.771	8758
227.844	8742.03
227.916	8758.58
227.989	8718.35
228.062	8712.86
228.134	8798.61
228.207	8802.12
228.28	8792.74
228.352	8805.49
228.425	8808.33
228.498	8853.29
228.57	8835.49
228.643	8887.44
228.716	8897.46
228.788	8888.36
228.861	8879.02
228.934	8950.35
229.006	8956.22
229.079	8961.56
229.151	8947.94
229.224	8914.31
229.296	8935.58
229.369	9039.5
229.442	9090.78
229.514	9076.11
229.587	9123.24
229.659	9044.52
229.732	9059.25
229.804	9105.22
229.877	9180.64
229.949	9212.9
230.022	9262.08
230.094	9261.98
230.167	9247.87
230.239	9196.08
230.312	9177.31
230.384	9247.19
230.457	9240.26
230.529	9253.11
230.602	9254.89
230.674	9262.74
230.747	9307.1
230.819	9338.64
230.892	9217.88
230.964	9213.55
231.037	9244.34
231.109	9232.35
231.181	9275.38
231.254	9237.06
231.326	9219.59
231.399	9191.02
231.471	9165.98
231.544	9095.13
231.616	9141.19
231.688	9151.02
231.761	9142.26
231.833	9134.75
231.905	9046.38
231.978	9040.03
232.05	9023.47
232.122	9026.26
232.195	9007.2
232.267	9039.31
232.339	9015.24
232.412	9085.85
232.484	9061.72
232.556	9035.74
232.629	9104.76
232.701	9120.41
232.773	9134.94
232.846	9128.78
232.918	9137.69
232.99	9156.38
233.062	9192.01
233.135	9203.37
233.207	9160.91
233.279	9204.6
233.351	9233.77
233.424	9241.91
233.496	9224.14
233.568	9305.81
233.64	9271.68
233.713	9286.46
233.785	9283.67
233.857	9300.95
233.929	9248.67
234.001	9313.03
234.074	9379.21
234.146	9310.53
234.218	9311.25
234.29	9311.34
234.362	9294.16
234.434	9247.06
234.507	9209.17
234.579	9156.93
234.651	9135.46
234.723	9174.99
234.795	9196.37
234.867	9190.25
234.939	9253.96
235.012	9269.13
235.084	9267.68
235.156	9302.1
235.228	9288.24
235.3	9279.52
235.372	9292.91
235.444	9349.19
235.516	9268.55
235.588	9272.7
235.66	9286.9
235.732	9253.1
235.804	9450.17
235.876	9502.4
235.948	9567.85
236.02	9585.23
236.092	9598.76
236.164	9617.39
236.236	9613.54
236.308	9619.89
236.38	9649.8
236.452	9623.07
236.524	9645.27
236.596	9712.54
236.668	9746.35
236.74	9767.15
236.812	9790.02
236.884	9821.96
236.956	9831.54
237.028	9829.09
237.1	9811.42
237.172	9878.47
237.244	9957.6
237.316	9837.54
237.388	9821.61
237.46	9794.92
237.532	9853.63
237.604	9850.45
237.675	9921.31
237.747	9970.16
237.819	9952.05
237.891	9958.89
237.963	9951.48
238.035	9944.06
238.107	9834.4
238.178	9897.62
238.25	9901.81
238.322	9991.19
238.394	9943.46
238.466	9951.84
238.538	9995.66
238.609	10040.31
238.681	9987.41
238.753	9963.47
238.825	9978.84
238.897	10005.71
238.968	10088.25
239.04	10073.94
239.112	10186.9
239.184	10143.39
239.255	10135.88
239.327	10165.2
239.399	10179.7
239.471	10219.73
239.542	10258.65
239.614	10328.74
239.686	10244.81
239.758	10301.99
239.829	10267.72
239.901	10336.85
239.973	10347.45
240.044	10375.1
240.116	10382.62
240.188	10398.66
240.259	10418.22
240.331	10411.13
240.403	10446.49
240.474	10398.54
240.546	10380.14
240.618	10317.26
240.689	10317.55
240.761	10336.97
240.833	10405.87
240.904	10409.87
240.976	10409.67
241.048	10427.89
241.119	10456.37
241.191	10504.49
241.262	10576.26
241.334	10580.79
241.405	10581.27
241.477	10580.88
241.549	10595.58
241.62	10619.96
241.692	10666.02
241.763	10723.42
241.835	10743.37
241.906	10756.18
241.978	10725.78
242.049	10803.5
242.121	10862.13
242.192	10929.5
242.264	10901.31
242.335	10853.8
242.407	10898.76
242.478	10909.16
242.55	10923.91
242.621	10913.74
242.693	10910.56
242.764	10888.05
242.836	10894.99
242.907	10923.95
242.979	10957.73
243.05	10978.98
243.122	11007.61
243.193	10999.99
243.264	10926.17
243.336	10926.94
243.407	10971.61
243.479	11049.92
243.55	11058.83
243.622	11077.15
243.693	11080.52
243.764	11146.59
243.836	11120.24
243.907	11108.05
243.978	11112.19
244.05	11141.35
244.121	11096.82
244.192	11142.89
244.264	11098.12
244.335	11109.83
244.407	11063.19
244.478	11078.99
244.549	11070.46
244.62	11028.39
244.692	11035.96
244.763	11087.56
244.834	11077.54
244.906	11050.74
244.977	11075.95
245.048	11127.48
245.119	11103.24
245.191	11077.65
245.262	11012.4
245.333	11091.9
245.405	11106.79
245.476	11142.02
245.547	11157.35
245.618	11211.07
245.689	11216.09
245.761	11253.05
245.832	11251.22
245.903	11292.08
245.974	11326.11
246.045	11339.12
246.117	11419.99
246.188	11400.38
246.259	11381.34
246.33	11400.77
246.401	11409.34
246.473	11374.69
246.544	11363.12
246.615	11424.96
246.686	11426.11
246.757	11502.74
246.828	11485.43
246.899	11562.56
246.97	11524.2
247.042	11511.38
247.113	11548.49
247.184	11636.99
247.255	11632.95
247.326	11661.96
247.397	11675.07
247.468	11682.88
247.539	11693.05
247.61	11645.91
247.681	11693.38
247.752	11745.48
247.823	11720.27
247.894	11740.28
247.965	11707.7
248.037	11689
248.108	11629.18
248.179	11639.59
248.25	11628.07
248.321	11653.9
248.392	11600.25
248.463	11680.54
248.534	11679.15
248.605	11698.38
248.675	11674.61
248.746	11688.93
248.817	11706.33
248.888	11722.77
248.959	11663.97
249.03	11692.74
249.101	11711.83
249.172	11697.13
249.243	11621.61
249.314	11681.04
249.385	11683.49
249.456	11718.77
249.527	11719.59
249.598	11745.08
249.669	11747.54
249.739	11763.88
249.81	11782.29
249.881	11738.87
249.952	11728.41
250.023	11725.66
250.094	11673.27
250.165	11637.4
250.235	11640.39
250.306	11640.01
250.377	11608.58
250.448	11634.22
250.519	11572.38
250.59	11619
250.66	11621.26
250.731	11697.74
250.802	11705.02
250.873	11728.64
250.944	11752.88
251.014	11747.39
251.085	11845.39
251.156	11877.29
251.227	11924.58
251.297	11969.7
251.368	12028.31
251.439	12076.51
251.51	12123.31
251.58	12109.53
251.651	12106.2
251.722	12159.76
251.792	12114.11
251.863	12119.37
251.934	12184.1
252.005	12291.68
252.075	12296.26
252.146	12338.53
252.217	12383.75
252.287	12420.38
252.358	12424.63
252.429	12491.1
252.499	12484.02
252.57	12481.46
252.641	12524.65
252.711	12531.5
252.782	12488.21
252.852	12561.43
252.923	12565.1
252.994	12580.23
253.064	12631.95
253.135	12613.63
253.205	12588.42
253.276	12670.61
253.347	12735.78
253.417	12711.67
253.488	12698.8
253.558	12693.55
253.629	12697.5
253.699	12710.08
253.77	12739.25
253.841	12730.62
253.911	12738.82
253.982	12754.09
254.052	12788.18
254.123	12784.18
254.193	12787.21
254.264	12935.11
254.334	12896.16
254.405	12854.94
254.475	12827.9
254.546	12838.16
254.616	12904.01
254.687	12940.41
254.757	12953.9
254.827	12950.92
254.898	12973.62
254.968	12978.01
255.039	12959.88
255.109	12994.11
255.18	12967.74
255.25	12898.52
255.321	12932.02
255.391	12897.07
255.461	12978.63
255.532	12891.91
255.602	12898.61
255.673	12843.9
255.743	12796.9
255.813	12741.51
255.884	12793.14
255.954	12826.21
256.024	12885.65
256.095	12881.74
256.165	12843.27
256.235	12865.79
256.306	12849.25
256.376	12897.12
256.446	12935.78
256.517	12977.77
256.587	13023.61
256.657	13046.85
256.728	13071.48
256.798	13080.93
256.868	13073.41
256.938	13044.53
257.009	13093.37
257.079	13117.62
257.149	13214.36
257.219	13150.3
257.29	13184.13
257.36	13125.81
257.43	13168.71
257.5	13106.14
257.571	13098.33
257.641	13130.1
257.711	13090.66
257.781	13124.07
257.852	13137.47
257.922	13074.08
257.992	13069.16
258.062	13058.56
258.132	13098.47
258.202	13103.53
258.273	13111.73
258.343	13184.42
258.413	13168.32
258.483	13172.04
258.553	13140.03
258.623	13115.1
258.693	13146.29
258.764	13209.73
258.834	13277.32
258.904	13289.13
258.974	13275.34
259.044	13282.28
259.114	13309.42
259.184	13340.66
259.254	13355.8
259.324	13309.81
259.394	13365.82
259.464	13445.41
259.535	13451.1
259.605	13447.05
259.675	13433.36
259.745	13471.06
259.815	13447.2
259.885	13450.72
259.955	13559.95
260.025	13562.98
260.095	13578.46
260.165	13605.6
260.235	13667.64
260.305	13658.82
260.375	13626.03
260.445	13722.98
260.515	13791
260.585	13843.4
260.655	13850.77
260.725	13894.64
260.795	13925.73
260.865	13987.29
260.934	13954.08
261.004	13987.63
261.074	13993.85
261.144	14057.77
261.214	14097.34
261.284	14100.09
261.354	14140.49
261.424	14109.11
261.494	14179.35
261.564	14178.72
261.634	14206.49
261.703	14134.03
261.773	14155.63
261.843	14187.01
261.913	14175.35
261.983	14123.67
262.053	14151
262.123	14151.53
262.192	14107.37
262.262	14151.34
262.332	14102.55
262.402	14139.91
262.472	14141.75
262.541	14079.13
262.611	14125.93
262.681	14097.69
262.751	14137.7
262.821	14145.46
262.89	14103.28
262.96	14121.36
263.03	14203.64
263.1	14227.55
263.169	14257.53
263.239	14295.28
263.309	14366.72
263.379	14400.17
263.448	14416.22
263.518	14428.47
263.588	14442.35
263.657	14512.1
263.727	14550.19
263.797	14562.72
263.867	14559.1
263.936	14525.07
264.006	14592.66
264.076	14584.8
264.145	14580.94
264.215	14565.32
264.285	14604.27
264.354	14564.6
264.424	14554.24
264.494	14507.53
264.563	14499.72
264.633	14578.58
264.702	14597.57
264.772	14539.63
264.842	14535.58
264.911	14577.28
264.981	14539.34
265.05	14555.54
265.12	14551.15
265.19	14561.32
265.259	14602.83
265.329	14634.31
265.398	14664.63
265.468	14756.45
265.537	14757.61
265.607	14798.87
265.676	14845.49
265.746	14871.52
265.815	14929.36
265.885	14936.4
265.955	14926.91
266.024	14929.22
266.094	14854.99
266.163	14917.26
266.232	14988.36
266.302	14997.95
266.371	15015.02
266.441	15048.76
266.51	15094.5
266.58	15095.13
266.649	15074.74
266.719	15133.4
266.788	15165.79
266.858	15239.98
266.927	15167.05
266.996	15197.51
267.066	15228.12
267.135	15199.73
267.205	15232.94
267.274	15253.28
267.343	15309.82
267.413	15318.79
267.482	15378.41
267.552	15446.57
267.621	15394.71
267.69	15351.95
267.76	15379.86
267.829	15401.12
267.898	15405.6
267.968	15385.45
268.037	15424.21
268.106	15478.1
268.176	15442.67
268.245	15451.1
268.314	15438.57
268.384	15502.01
268.453	15517.48
268.522	15539.07
268.592	15602.99
268.661	15594.46
268.73	15629.74
268.799	15618.94
268.869	15703.78
268.938	15655.96
269.007	15649.5
269.076	15678.96
269.146	15733.33
269.215	15758.44
269.284	15841.82
269.353	15839.51
269.422	15853.53
269.492	15856.76
269.561	15775.88
269.63	15809.48
269.699	15810.59
269.768	15829.05
269.838	15850.35
269.907	15888.28
269.976	15861.63
270.045	15806.2
270.114	15844.08
270.183	15853.91
270.253	15884.28
270.322	15830.49
270.391	15862.83
270.46	15924.14
270.529	15965.11
270.598	15998.89
270.667	16011.09
270.736	15977.01
270.806	16016.34
270.875	16077.32
270.944	16091.29
271.013	16218.2
271.082	16247.21
271.151	16279.46
271.22	16242.01
271.289	16255.89
271.358	16265.43
271.427	16301.48
271.496	16334.79
271.565	16324.43
271.634	16341.78
271.703	16466.12
271.772	16540.63
271.841	16552.01
271.91	16525.89
271.979	16554.8
272.048	16534.56
272.117	16581.5
272.186	16586.18
272.255	16634.13
272.324	16664.88
272.393	16698.33
272.462	16690.48
272.531	16717.03
272.6	16736.79
272.669	16809.23
272.738	16816.61
272.807	16851.06
272.876	16836.65
272.945	16969.04
273.013	17035.7
273.082	17103.51
273.151	17011.75
273.22	17048.52
273.289	17072.38
273.358	17158.84
273.427	17165.06
273.496	17220.38
273.564	17263.56
273.633	17320.77
273.702	17312
273.771	17335.56
273.84	17363.37
273.909	17405.44
273.977	17439.95
274.046	17447.95
274.115	17516.57
274.184	17514.26
274.253	17526.94
274.322	17604.29
274.39	17553.21
274.459	17548.72
274.528	17508.44
274.597	17534.7
274.665	17560.24
274.734	17639.76
274.803	17645.74
274.872	17674.22
274.94	17669.4
275.009	17890.09
275.078	17889.7
275.147	17925.07
275.215	17945.02
275.284	18008.59
275.353	18027.38
275.421	17991.91
275.49	18079.62
275.559	18080.87
275.627	18114.18
275.696	18133.26
275.765	18182.27
275.833	18203.04
275.902	18244.77
275.971	18317.11
276.039	18395.85
276.108	18452.77
276.177	18479.51
276.245	18490.93
276.314	18511.94
276.383	18572.86
276.451	18399.93
276.52	18450.72
276.588	18536.11
276.657	18603.19
276.725	18619.24
276.794	18653.5
276.863	18737.45
276.931	18709.21
277	18776.1
277.068	18851.76
277.137	18958.07
277.205	18985.05
277.274	19086.64
277.342	19156.61
277.411	19143.02
277.48	19158.97
277.548	19167.65
277.617	19214.82
277.685	19245.38
277.754	19307.44
277.822	19323.25
277.89	19414.72
277.959	19434.91
278.027	19414.43
278.096	19418.77
278.164	19551.15
278.233	19578.91
278.301	19591.97
278.37	19652.78
278.438	19644.06
278.507	19690.66
278.575	19657.8
278.643	19683.96
278.712	19660.4
278.78	19658.13
278.849	19729.41
278.917	19810.66
278.985	19833.45
279.054	19881.89
279.122	19965.69
279.191	19999.52
279.259	20034.65
279.327	19998.8
279.396	20091.04
279.464	20121.2
279.532	20185.06
279.601	20199.57
279.669	20226.8
279.737	20318.36
279.806	20375.33
279.874	20457.74
279.942	20498.36
280.011	20524.72
280.079	20593.4
280.147	20688.1
280.215	20750.9
280.284	20783.52
280.352	20774.46
280.42	20847.62
280.488	20858.42
280.557	20869.6
280.625	20931.53
280.693	20972.73
280.761	21026.42
280.83	21020.69
280.898	21112.55
280.966	21103.82
281.034	21057.02
281.102	21065.02
281.171	21073.65
281.239	21140.89
281.307	21149.23
281.375	21152.12
281.443	21289.59
281.512	21320.15
281.58	21389.86
281.648	21390.24
281.716	21447.31
281.784	21490.44
281.852	21512.09
281.92	21547.03
281.989	21624.83
282.057	21608.64
282.125	21812.84
282.193	21856.41
282.261	21901.91
282.329	21930.69
282.397	21982.02
282.465	22035.38
282.533	22114.09
282.601	22133.18
282.67	22096.01
282.738	22114.08
282.806	22203.5
282.874	22188.7
282.942	22249.93
283.01	22267.04
283.078	22328.16
283.146	22350.58
283.214	22424
283.282	22480.27
283.35	22567.77
283.418	22592.94
283.486	22656.96
283.554	22559.05
283.622	22606.63
283.69	22645.49
283.758	22673.31
283.826	22743.07
283.894	22816.41
283.962	22940.15
284.03	23036.77
284.098	23091.35
284.165	23136.61
284.233	23184.01
284.301	23220.03
284.369	23238.98
284.437	23266.52
284.505	23300.7
284.573	23397.96
284.641	23409.44
284.709	23481.35
284.777	23479.71
284.845	23545.59
284.912	23603.31
284.98	23653.51
285.048	23681.73
285.116	23750.88
285.184	23843.58
285.252	23893.36
285.319	23892.34
285.387	23894.23
285.455	23885.98
285.523	23969.32
285.591	24007.32
285.659	24054.68
285.726	24141.75
285.794	24138.23
285.862	24176.97
285.93	24230.84
285.997	24259.49
286.065	24289.97
286.133	24304.64
286.201	24336.81
286.269	24348.1
286.336	24375.31
286.404	24404.25
286.472	24471.74
286.539	24440.77
286.607	24429.82
286.675	24462.53
286.743	24531.85
286.81	24562.69
286.878	24651.84
286.946	24662.99
287.013	24710.4
287.081	24753.59
287.149	24744.13
287.216	24864.71
287.284	24895.34
287.352	24930.03
287.419	24967.62
287.487	25066.02
287.555	25116.06
287.622	25159.29
287.69	25218.46
287.758	25294.27
287.825	25332.78
287.893	25343.69
287.96	25414.26
288.028	25497.66
288.096	25562.82
288.163	25612.68
288.231	25617.99
288.298	25659.02
288.366	25755.32
288.433	25788.96
288.501	25805.08
288.569	25860.53
288.636	25873.71
288.704	25966.36
288.771	26042.58
288.839	26056.86
288.906	26073.04
288.974	26153.11
289.041	26195.39
289.109	26208.52
289.176	26291.16
289.244	26340.01
289.311	26429.57
289.379	26517.58
289.446	26562.74
289.514	26593.45
289.581	26651.54
289.649	26723.92
289.716	26764.97
289.783	26786.27
289.851	26898.87
289.918	26942.52
289.986	27028.69
290.053	27094.42
290.121	27130.12
290.188	27180.41
290.255	27333.99
290.323	27363.79
290.39	27388.43
290.458	27467.05
290.525	27562.07
290.592	27580.53
290.66	27653.18
290.727	27683.57
290.794	27772.63
290.862	27823.22
290.929	27886.95
290.996	27930.68
291.064	27995.96
291.131	28090.69
291.198	28182.19
291.266	28224.09
291.333	28290.08
291.4	28340.74
291.468	28440.28
291.535	28470.3
291.602	28524.04
291.669	28533.33
291.737	28594.16
291.804	28641.68
291.871	28738.18
291.938	28801.71
292.006	28942.52
292.073	29016.15
292.14	29095.58
292.207	29121.6
292.275	29171.5
292.342	29250.42
292.409	29373.99
292.476	29496.67
292.543	29505.27
292.611	29536.86
292.678	29636.36
292.745	29754.61
292.812	29832.69
292.879	29865.54
292.946	29925.98
293.014	30022.4
293.081	30098.79
293.148	30193.59
293.215	30288.57
293.282	30310.19
293.349	30390.87
293.416	30364
293.484	30449.75
293.551	30531.87
293.618	30622.51
293.685	30743.7
293.752	30763.01
293.819	30796.42
293.886	30799.8
293.953	30875.05
294.02	30958.45
294.087	31016.88
294.154	31045.64
294.221	31145.4
294.288	31192.4
294.356	31308.14
294.423	31365.86
294.49	31380
294.557	31472.67
294.624	31483.71
294.691	31593.13
294.758	31632.46
294.825	31713.51
294.892	31739.76
294.959	31790.08
295.026	31864.82
295.093	31884.68
295.16	31933.91
295.226	31990.29
295.293	32127.3
295.36	32194.81
295.427	32279.84
295.494	32369.49
295.561	32441.17
295.628	32562.05
295.695	32663.21
295.762	32717.57
295.829	32808
295.896	32919.42
295.963	32996.39
296.03	33088.29
296.096	33163.36
296.163	33257.53
296.23	33357.18
296.297	33461.42
296.364	33508.61
296.431	33578.81
296.498	33638.46
296.564	33775.99
296.631	33838.37
296.698	33829.11
296.765	33943.67
296.832	33957.63
296.899	33977.02
296.965	34079.22
297.032	34052.88
297.099	34162.74
297.166	34241.72
297.233	34274.89
297.299	34303.35
297.366	34356.02
297.433	34415.9
297.5	34487.2
297.566	34529.68
297.633	34566.74
297.7	34618.58
297.767	34660.76
297.833	34724.84
297.9	34776.1
297.967	34785.99
298.033	34879.32
298.1	35030.58
298.167	35051.83
298.234	35129.72
298.3	35207.62
298.367	35254.98
298.434	35336.97
298.5	35356.29
298.567	35390.3
298.634	35437.21
298.7	35547.72
298.767	35595.46
298.834	35699.78
298.9	35745.11
298.967	35781.79
299.033	35868.07
299.1	35981.49
299.167	36085.95
299.233	36120.21
299.3	36214.68
299.366	36310.12
299.433	36404.25
299.5	36374.3
299.566	36441.08
299.633	36547.47
299.699	36627.71
299.766	36665.86
299.832	36719.99
299.899	36794.8
299.965	36880.37
300.032	36919
300.099	36989.54
300.165	37067.99
300.232	37090.17
300.298	37135.71
300.365	37231.1
300.431	37275.33
300.498	37282.32
300.564	37350.05
300.631	37445.16
300.697	37536.74
300.763	37585.87
300.83	37615.06
300.896	37712.5
300.963	37787.28
301.029	37837.83
301.096	37889.94
301.162	37982.78
301.229	38023.82
301.295	38041.16
301.361	38107.98
301.428	38177.85
301.494	38164.64
301.561	38220.2
301.627	38277.6
301.693	38333.1
301.76	38385.12
301.826	38429.95
301.892	38520.63
301.959	38601.36
302.025	38638.32
302.092	38664.36
302.158	38725.26
302.224	38788.9
302.291	38805.22
302.357	38848.16
302.423	38871.82
302.49	38905.14
302.556	38975.34
302.622	39015.61
302.688	39100.28
302.755	39180.26
302.821	39241.75
302.887	39341.81
302.954	39389.91
303.02	39473.85
303.086	39547.7
303.152	39588.94
303.219	39620.13
303.285	39674.75
303.351	39731.94
303.417	39769.06
303.483	39800.3
303.55	39841.45
303.616	39876.93
303.682	39924.73
303.748	39940.71
303.815	40040.13
303.881	40115.55
303.947	40128.72
304.013	40188.63
304.079	40197.28
304.145	40181
304.212	40231.19
304.278	40252.86
304.344	40280.27
304.41	40280.51
304.476	40295.82
304.542	40320.45
304.608	40388.78
304.674	40382.51
304.741	40406.32
304.807	40477.23
304.873	40530.25
304.939	40626.33
305.005	40622.59
305.071	40660.69
305.137	40724.39
305.203	40696.3
305.269	40736.79
305.335	40812.37
305.401	40856.21
305.467	40891.59
305.533	40960.22
305.599	41035.8
305.666	41109.19
305.732	41154.59
305.798	41239.79
305.864	41357.83
305.93	41425.09
305.996	41463.06
306.062	41503.01
306.128	41536.26
306.194	41538.15
306.259	41586.28
306.325	41596.92
306.391	41676.26
306.457	41752.76
306.523	41796.41
306.589	41917.71
306.655	41933.66
306.721	41914.26
306.787	41902.4
306.853	41998.47
306.919	41996.09
306.985	42016.75
307.051	42030.94
307.117	42042.9
307.183	42073.58
307.248	42026.56
307.314	42082.67
307.38	42127.84
307.446	42190.36
307.512	42196.34
307.578	42247.39
307.644	42263.09
307.709	42302.72
307.775	42324.94
307.841	42348.09
307.907	42390.24
307.973	42365.83
308.039	42396.9
308.104	42464.43
308.17	42517.62
308.236	42512.41
308.302	42562.44
308.368	42549.95
308.433	42581.26
308.499	42616.17
308.565	42615.54
308.631	42669.51
308.696	42635.57
308.762	42633.43
308.828	42670.73
308.894	42657.7
308.959	42630.86
309.025	42643.75
309.091	42661.45
309.156	42682.65
309.222	42734.98
309.288	42733.48
309.354	42708.24
309.419	42751.18
309.485	42746.76
309.551	42795.63
309.616	42785.86
309.682	42822.92
309.748	42846.45
309.813	42875.72
309.879	42890.31
309.945	42896.29
310.01	42893.52
310.076	42937.77
310.141	42969.67
310.207	42947.69
310.273	42994.37
310.338	43045.91
310.404	43047.81
310.469	43046.2
310.535	43043.19
310.601	42997.61
310.666	43060.45
310.732	43132.18
310.797	43126.06
310.863	43133.5
310.928	43153.68
310.994	43208.98
311.059	43231.4
311.125	43267.1
311.191	43331.27
311.256	43336.57
311.322	43380.09
311.387	43377.42
311.453	44229.43
311.518	44219.5
311.584	44257.69
311.649	44321.55
311.715	44326.12
311.78	44360.84
311.846	44362.35
311.911	44416.3
311.976	44461.43
312.042	44440.71
312.107	44416.19
312.173	44437.84
312.238	44453.6
312.304	44464.74
312.369	44460.36
312.434	44456.81
312.5	44455.54
312.565	44395.03
312.631	44443.13
312.696	44462
312.761	44500.87
312.827	43685.44
312.892	43808
312.958	43828.77
313.023	43858.06
313.088	43888.71
313.154	43888.76
313.219	43906.02
313.284	43906.12
313.35	43926.21
313.415	43935.94
313.48	43958.8
313.546	43994.32
313.611	44056.54
313.676	44054.64
313.741	44057.95
313.807	44112.3
313.872	44179.29
313.937	44228.27
314.003	44310.66
314.068	44340.73
314.133	44387.63
314.198	44400.91
314.264	44362.75
314.329	44363.39
314.394	44378.23
314.459	44390
314.525	44480.4
314.59	44501.32
314.655	44504.68
314.72	44553.68
314.785	44583.01
314.851	44596.44
314.916	44569.68
314.981	44550.9
315.046	44567.63
315.111	44574.88
315.176	44562.57
315.242	44581.45
315.307	44606.56
315.372	44552.49
315.437	44548.94
315.502	44554.73
315.567	44616.87
315.632	44616.09
315.698	44659.6
315.763	44665.92
315.828	44670.89
315.893	44666.36
315.958	44675.85
316.023	44661.79
316.088	44617.21
316.153	44562.83
316.218	44564.43
316.283	44521.53
316.348	44486.8
316.413	44486.11
316.479	44449.59
316.544	44338.68
316.609	44250.77
316.674	44127.12
316.739	44015.06
316.804	43899.84
316.869	43765.69
316.934	43633.5
316.999	43507.09
317.064	43311.48
317.129	43145.56
317.194	43009.36
317.259	42832.99
317.324	42649.98
317.389	42478.5
317.454	42325.23
317.518	42196.2
317.583	42070.06
317.648	41947.89
317.713	41788.13
317.778	41555.5
317.843	41412.1
317.908	41255.85
317.973	41075.12
318.038	40934.27
318.103	40759.62
318.168	40609.89
318.233	40460.65
318.297	40244.78
318.362	40063.43
318.427	39894.71
318.492	39754.56
318.557	39547.62
318.622	39386.22
318.687	39253.26
318.751	39077.97
318.816	38909.16
318.881	38732.8
318.946	38507.36
319.011	38306.81
319.075	38097.7
319.14	37913.54
319.205	37687.46
319.27	37509.23
319.335	37296.3
319.399	37103.17
319.464	36936.67
319.529	36695.7
319.594	36497.45
319.658	36320.5
319.723	36106.44
319.788	35930.7
319.853	35675
319.917	35490.48
319.982	35241.16
320.047	35017.87
320.112	34825.42
320.176	34569.54
320.241	34368.02
320.306	34162.5
320.37	33931.38
320.435	33739.98
320.5	33558.97
320.564	33357.34
320.629	33112.65
320.694	32910.83
320.758	32679.65
320.823	32445.3
320.888	32274.31
320.952	32013.1
321.017	31777.76
321.082	31551.54
321.146	31333.83
321.211	31120.04
321.275	30894.6
321.34	30652.03
321.405	30415.35
321.469	30180.82
321.534	29951.06
321.598	29681
321.663	29480.78
321.727	29276.97
321.792	29017.29
321.857	28770.23
321.921	28541.31
321.986	28309.14
322.05	28020.57
322.115	27796.77
322.179	27555.29
322.244	27255.98
322.308	27051.7
322.373	26801.86
322.437	26573.77
322.502	26377.89
322.566	26129.32
322.631	25900.31
322.695	25666.72
322.76	25417.41
322.824	25202.92
322.889	24952.13
322.953	24700.12
323.018	24368.69
323.082	24049.83
323.146	23769.72
323.211	23491.04
323.275	23225.48
323.34	22970.22
323.404	22756.5
323.468	22485.16
323.533	22225.11
323.597	21966.59
323.662	21677.52
323.726	21443.43
323.79	21162.02
323.855	20836.94
323.919	20561.34
323.983	20305.16
324.048	19919.63
324.112	20042.96
324.177	19223.48
324.241	18174.58
324.305	17144.5
324.37	16136.45
324.434	15153.84
324.498	14883.72
324.562	14573.45
324.627	14227.36
324.691	13886.39
324.755	13489.51
324.82	13051.25
324.884	12585.66
324.948	12114.15
325.012	11540.51
325.077	10829.28
