Data from 20250701_urea_2M_exp3_MAYP1162681_18-29-52-115.txt Node
Date: Tue Jul 01 18:29:52 BST 2025
User: adleo
Spectrometer: MAYP116268
Trigger mode: 0
Integration Time (sec): 4.000000E0
Scans to average: 1
Electric dark correction enabled: true
Nonlinearity correction enabled: true
Boxcar width: 10
XAxis mode: Wavelengths
Number of Pixels in Spectrum: 2068
>>>>>Begin Spectral Data<<<<<
179.565	4040.14
179.642	4255.95
179.718	4422.97
179.795	4569.08
179.871	4692.09
179.948	4758.46
180.024	4835.7
180.101	4921.71
180.177	4977.98
180.254	5065.97
180.33	5149.57
180.407	5443.09
180.483	5758.16
180.56	6074.01
180.636	6366.43
180.712	6328.39
180.789	6368.96
180.865	6416.31
180.942	6447.93
181.018	6485.62
181.095	6536.84
181.171	6547.78
181.248	6550.52
181.324	6605.1
181.4	6631.66
181.477	6669.94
181.553	6716.26
181.63	6797.11
181.706	6855.43
181.782	6886.01
181.859	6882.69
181.935	6905.13
182.011	6893.22
182.088	6951.31
182.164	7028.51
182.24	7080.18
182.317	7106.22
182.393	7101.94
182.469	7154.02
182.546	7202.99
182.622	7216.82
182.698	7201.01
182.775	7252.96
182.851	7302.7
182.927	7274.29
183.003	7262.67
183.08	7247.1
183.156	7286.36
183.232	7270.11
183.308	7229.16
183.385	7261.64
183.461	7323.5
183.537	7325.23
183.613	7374.45
183.69	7342.87
183.766	7298.91
183.842	7322.71
183.918	7340.78
183.995	7386.34
184.071	7405.82
184.147	7389.04
184.223	7355.27
184.299	7398.11
184.375	7350.58
184.452	7373.96
184.528	7512.34
184.604	7549.49
184.68	7584.47
184.756	7610.2
184.832	7627.37
184.908	7648.26
184.985	7635.63
185.061	7577.18
185.137	7607.13
185.213	7563.58
185.289	7569.06
185.365	7547.63
185.441	7545.9
185.517	7603.72
185.593	7585.69
185.669	7570.68
185.745	7605.25
185.822	7659.3
185.898	7631.12
185.974	7663.6
186.05	7637.77
186.126	7557.38
186.202	7529.12
186.278	7518.01
186.354	7482.05
186.43	7504.89
186.506	7497.35
186.582	7503.02
186.658	7530.84
186.734	7457.51
186.81	7465.05
186.886	7476.73
186.962	7517.49
187.038	7502.49
187.114	7472.47
187.19	7504.35
187.266	7465.27
187.341	7464.22
187.417	7439.51
187.493	7436.43
187.569	7454.32
187.645	7430.48
187.721	7385.66
187.797	7417.24
187.873	7432.82
187.949	7413.16
188.025	7391.47
188.101	7399.97
188.176	7416.46
188.252	7399.45
188.328	7431.63
188.404	7433.5
188.48	7414.23
188.556	7393.75
188.632	7391.35
188.707	7393.66
188.783	7382.4
188.859	7371.12
188.935	7336.45
189.011	7363.99
189.086	7340.3
189.162	7302.76
189.238	7291.04
189.314	7284.02
189.39	7262.72
189.465	7236.53
189.541	7294.55
189.617	7242.41
189.693	7222.9
189.768	7239.01
189.844	7326.2
189.92	7295.17
189.996	7324.88
190.071	7365.45
190.147	7357.33
190.223	7388.39
190.298	7355.26
190.374	7307.39
190.45	7347.36
190.526	7378.18
190.601	7362.02
190.677	7366.97
190.753	7470.54
190.828	7485.19
190.904	7540.34
190.98	7590.78
191.055	7636.32
191.131	7606.45
191.207	7677.31
191.282	7710.51
191.358	7676.24
191.433	7622.16
191.509	7671.07
191.585	7660.78
191.66	7667.13
191.736	7695.11
191.811	7658.9
191.887	7721.14
191.963	7806.54
192.038	7823.71
192.114	7827.12
192.189	7837.84
192.265	7832.07
192.34	7755.67
192.416	7748.79
192.491	7736.14
192.567	7743.75
192.642	7746.01
192.718	7748.94
192.793	7706.29
192.869	7696.19
192.944	7698.5
193.02	7727.98
193.095	7742.21
193.171	7761.3
193.246	7756.16
193.322	7746.59
193.397	7752.31
193.473	7697.18
193.548	7631.97
193.624	7654.57
193.699	7648.51
193.775	7712.16
193.85	7715.38
193.925	7746.4
194.001	7746.16
194.076	7714.23
194.152	7682.97
194.227	7652.67
194.302	7616.86
194.378	7629.99
194.453	7614.13
194.529	7666.5
194.604	7616.39
194.679	7596.44
194.755	7530.69
194.83	7576.45
194.905	7570.97
194.981	7606.89
195.056	7586.99
195.131	7612.18
195.207	7601.79
195.282	7567.66
195.357	7492.86
195.433	7543.15
195.508	7501.21
195.583	7534.86
195.659	7591.04
195.734	7612.06
195.809	7612.59
195.884	7646.13
195.96	7648.82
196.035	7709.59
196.11	7689.1
196.185	7727.71
196.261	7738.48
196.336	7851.28
196.411	7797.64
196.486	7813.41
196.561	7785.18
196.637	7813.73
196.712	7867
196.787	7876.76
196.862	7931.72
196.937	7968.02
197.013	7992.56
197.088	8027.76
197.163	8099.46
197.238	8158.34
197.313	8156.95
197.388	8203.56
197.464	8310.49
197.539	8342.72
197.614	8319.73
197.689	8366.06
197.764	8425.6
197.839	8499.93
197.914	8472.21
197.989	8551.28
198.065	8602.76
198.14	8790.73
198.215	8890.02
198.29	8928.88
198.365	8980.24
198.44	9018.06
198.515	9119.16
198.59	9174.53
198.665	9273.71
198.74	9302.65
198.815	9299.95
198.89	9384.97
198.965	9498.39
199.04	9483.65
199.115	9549.37
199.19	9700.5
199.265	9710.13
199.34	9750.34
199.415	9867.65
199.49	9950.66
199.565	9987.7
199.64	10074.73
199.715	10064.32
199.79	10084.55
199.865	10114.75
199.94	10106.9
200.015	10217.46
200.09	10234.85
200.165	10254.75
200.24	10274.41
200.315	10415.75
200.39	10479.3
200.464	10498.19
200.539	10501.51
200.614	10555.13
200.689	10633.61
200.764	10653.85
200.839	10716.8
200.914	10726.05
200.989	10690.19
201.063	10736.64
201.138	10670.19
201.213	10669.42
201.288	10595.22
201.363	10615.99
201.438	10614.3
201.512	10669.83
201.587	10612.3
201.662	10626.71
201.737	10671.52
201.812	10701.88
201.886	10585.15
201.961	10614.01
202.036	10574.08
202.111	10563
202.186	10462.26
202.26	10407.61
202.335	10332.79
202.41	10308.51
202.485	10252.59
202.559	10180.09
202.634	10085.15
202.709	10119.14
202.784	10044.24
202.858	10040.77
202.933	9968.57
203.008	9943.13
203.082	9876.96
203.157	9869.54
203.232	9718.85
203.306	9641.91
203.381	9523.03
203.456	9437.7
203.53	9357.76
203.605	9286.53
203.68	9200.46
203.754	9176.02
203.829	9116.01
203.904	9041.49
203.978	9000.94
204.053	9015.1
204.127	8970.62
204.202	8969.95
204.277	8907.95
204.351	8885.43
204.426	8864.24
204.5	8832.23
204.575	8706.02
204.65	8741.8
204.724	8711.46
204.799	8734.45
204.873	8715.38
204.948	8714.66
205.022	8673.33
205.097	8637.79
205.171	8680.67
205.246	8711.63
205.32	8702.97
205.395	8697.43
205.469	8666.7
205.544	8689.33
205.618	8626.18
205.693	8668.11
205.767	8621.52
205.842	8698.11
205.916	8678.38
205.991	8643.1
206.065	8663.6
206.14	8722.89
206.214	8709.07
206.289	8682.74
206.363	8725.62
206.438	8735.15
206.512	8755.08
206.586	8825.29
206.661	8857.07
206.735	8777.99
206.81	8774.91
206.884	8836.12
206.958	8795.94
207.033	8859.88
207.107	8886.37
207.181	8996.62
207.256	8972.31
207.33	9038.93
207.405	9084.36
207.479	9154.25
207.553	9177.74
207.628	9123.9
207.702	9162.6
207.776	9131.21
207.851	9145.6
207.925	9206.91
207.999	9197.28
208.073	9190.3
208.148	9195.02
208.222	9149.95
208.296	9268.9
208.371	9332.25
208.445	9370.24
208.519	9473.36
208.593	9510.78
208.668	9495.31
208.742	9504.03
208.816	9511.45
208.89	9561.93
208.965	9552.49
209.039	9584.76
209.113	9652.33
209.187	9723.84
209.261	9709.15
209.336	9779.99
209.41	9849.16
209.484	9847.23
209.558	9931.09
209.632	9980.4
209.707	10025.49
209.781	10109
209.855	10161.13
209.929	10221.28
210.003	10244.11
210.077	10240.21
210.151	10421.37
210.226	10542.27
210.3	10643.73
210.374	10732.69
210.448	10749.31
210.522	10784.92
210.596	10819.67
210.67	10848.53
210.744	11021.81
210.818	11137.75
210.892	11215.72
210.966	11195.68
211.041	11244.35
211.115	11221.99
211.189	11302.47
211.263	11361.3
211.337	11383.81
211.411	11441.5
211.485	11417.45
211.559	11453.34
211.633	11461.29
211.707	11339.34
211.781	11366.68
211.855	11236.55
211.929	11200.08
212.003	11127.78
212.077	11164.89
212.151	11202.92
212.225	11237.61
212.299	11198.71
212.373	11152.07
212.447	11127.78
212.52	11229.32
212.594	11239.2
212.668	11279.58
212.742	11232.78
212.816	11213.31
212.89	11179.97
212.964	11162.66
213.038	11174.38
213.112	11213.13
213.186	11258.03
213.26	11174.99
213.333	11002.34
213.407	11009.56
213.481	11010.91
213.555	11046.36
213.629	10995.9
213.703	10924.48
213.777	10903.23
213.85	10821.25
213.924	10933.35
213.998	10924.73
214.072	10887.61
214.146	10827.33
214.219	10807.47
214.293	10776.88
214.367	10758.04
214.441	10787.05
214.515	10735.67
214.588	10630.15
214.662	10493.61
214.736	10400.01
214.81	10415.57
214.883	10437.91
214.957	10386.67
215.031	10323.25
215.105	10225.04
215.178	10148.73
215.252	10115.3
215.326	10006.05
215.4	9916.01
215.473	9718.29
215.547	9632.44
215.621	9560.5
215.694	9559.54
215.768	9451.8
215.842	9380.59
215.915	9310.69
215.989	9185.52
216.063	9122.71
216.136	9097.72
216.21	9071.63
216.284	9093.3
216.357	9063.26
216.431	9009.67
216.504	9010.2
216.578	9075.26
216.652	9085.74
216.725	9062.88
216.799	9061.24
216.873	9044.58
216.946	9046.8
217.02	9004.61
217.093	8964.03
217.167	8859.48
217.24	8771.8
217.314	8734.61
217.387	8683.53
217.461	8634.39
217.535	8662.78
217.608	8598.59
217.682	8574.61
217.755	8589.87
217.829	8528.63
217.902	8511.93
217.976	8495.09
218.049	8439.08
218.123	8350.25
218.196	8346.74
218.27	8310.7
218.343	8232.82
218.417	8231.57
218.49	8209.39
218.563	8265.53
218.637	8275.54
218.71	8351
218.784	8378.91
218.857	8414.37
218.931	8440.87
219.004	8455.35
219.077	8471.77
219.151	8490.82
219.224	8472.48
219.298	8459.15
219.371	8504.78
219.444	8460.53
219.518	8465.63
219.591	8489.64
219.665	8606.94
219.738	8626.71
219.811	8604.97
219.885	8661.43
219.958	8691.32
220.031	8693.91
220.105	8709.13
220.178	8714.47
220.251	8688.28
220.325	8712.84
220.398	8732.23
220.471	8757.11
220.544	8787.38
220.618	8762.01
220.691	8789.25
220.764	8813.36
220.838	8848.93
220.911	8831.79
220.984	8919.13
221.057	8961.73
221.131	8982.86
221.204	8879.66
221.277	8949.19
221.35	9083.26
221.424	9070.83
221.497	9079.65
221.57	9113.62
221.643	9146.99
221.716	9205.6
221.79	9202.66
221.863	9214.17
221.936	9224.09
222.009	9236.22
222.082	9274.5
222.155	9282.06
222.229	9350.16
222.302	9378.23
222.375	9380.2
222.448	9424.5
222.521	9437.22
222.594	9437.6
222.667	9408.49
222.74	9469.2
222.814	9465.54
222.887	9449.49
222.96	9508.2
223.033	9553.62
223.106	9577.02
223.179	9609.63
223.252	9614.4
223.325	9656.48
223.398	9667.9
223.471	9699.15
223.544	9723.8
223.617	9734.78
223.69	9760.49
223.763	9720.61
223.837	9746.86
223.91	9785.24
223.983	9729.49
224.056	9687.84
224.129	9714.08
224.202	9770.59
224.275	9754.75
224.348	9722.05
224.42	9684.53
224.493	9621.06
224.566	9601.45
224.639	9624.37
224.712	9594.65
224.785	9586.02
224.858	9576.54
224.931	9562.67
225.004	9518.56
225.077	9517.31
225.15	9416.25
225.223	9411.44
225.296	9501.39
225.369	9444.14
225.442	9405.9
225.514	9427.9
225.587	9453.56
225.66	9456.16
225.733	9458.61
225.806	9475.28
225.879	9467.91
225.952	9432.53
226.025	9482.22
226.097	9534.02
226.17	9520.05
226.243	9450.33
226.316	9441.66
226.389	9446.96
226.461	9464.64
226.534	9488.42
226.607	9480.77
226.68	9571.9
226.753	9569.97
226.825	9473.61
226.898	9539.29
226.971	9545.12
227.044	9566.5
227.117	9574.74
227.189	9594.05
227.262	9636.87
227.335	9646.99
227.407	9643.96
227.48	9680.78
227.553	9696.73
227.626	9675
227.698	9682.94
227.771	9725.69
227.844	9702.24
227.916	9721.55
227.989	9682.83
228.062	9684.37
228.134	9772.91
228.207	9776.28
228.28	9771.03
228.352	9793.14
228.425	9800.6
228.498	9854.55
228.57	9833.75
228.643	9900.09
228.716	9903.8
228.788	9890.69
228.861	9889.63
228.934	9952.87
229.006	9967.99
229.079	9972.76
229.151	9956.38
229.224	9922.29
229.296	9955.19
229.369	10066.87
229.442	10118.37
229.514	10095.65
229.587	10140.06
229.659	10065.39
229.732	10083.26
229.804	10130.32
229.877	10219.7
229.949	10255.6
230.022	10311.21
230.094	10315.26
230.167	10300.42
230.239	10250.95
230.312	10237.9
230.384	10316.39
230.457	10317.07
230.529	10323.38
230.602	10320.78
230.674	10328
230.747	10379.24
230.819	10411.33
230.892	10283.57
230.964	10280.87
231.037	10319.87
231.109	10309.12
231.181	10352.72
231.254	10314.32
231.326	10301.41
231.399	10266.18
231.471	10226.87
231.544	10135.94
231.616	10179.43
231.688	10189.26
231.761	10182.76
231.833	10176.74
231.905	10082.93
231.978	10080.9
232.05	10066.07
232.122	10077.49
232.195	10057.64
232.267	10092.86
232.339	10068.14
232.412	10140.2
232.484	10119.96
232.556	10095.5
232.629	10173.99
232.701	10193.51
232.773	10204.83
232.846	10190.76
232.918	10201.94
232.99	10225.02
233.062	10267.27
233.135	10290.88
233.207	10248.58
233.279	10296.21
233.351	10336.05
233.424	10340.58
233.496	10312.2
233.568	10404.23
233.64	10363.86
233.713	10383.85
233.785	10382.4
233.857	10397.73
233.929	10345.12
234.001	10412.35
234.074	10479.45
234.146	10401.29
234.218	10400.03
234.29	10403.07
234.362	10390.84
234.434	10341.64
234.507	10306.57
234.579	10254.01
234.651	10236.33
234.723	10269.76
234.795	10292.93
234.867	10280.99
234.939	10352
235.012	10373.59
235.084	10377.92
235.156	10416.17
235.228	10404.18
235.3	10384.95
235.372	10398.92
235.444	10463.23
235.516	10381.07
235.588	10389.65
235.66	10407.42
235.732	10374.71
235.804	10584.37
235.876	10635.09
235.948	10706.22
236.02	10720.72
236.092	10742.87
236.164	10750.92
236.236	10757.37
236.308	10755.83
236.38	10788.16
236.452	10763.25
236.524	10786.57
236.596	10851.93
236.668	10889.62
236.74	10910.67
236.812	10946.18
236.884	10987.15
236.956	10994.13
237.028	10990.66
237.1	10981.12
237.172	11058.86
237.244	11144.73
237.316	11023.16
237.388	11006.63
237.46	10984.03
237.532	11049.52
237.604	11044.7
237.675	11126.53
237.747	11170.44
237.819	11160.13
237.891	11165.86
237.963	11161.52
238.035	11162.63
238.107	11048.74
238.178	11119.26
238.25	11130.29
238.322	11227.32
238.394	11177.2
238.466	11184.19
238.538	11233
238.609	11272.81
238.681	11218.44
238.753	11197.96
238.825	11216.75
238.897	11254.58
238.968	11341.48
239.04	11329.24
239.112	11450.83
239.184	11403.89
239.255	11402.87
239.327	11440.89
239.399	11463.06
239.471	11511.93
239.542	11544.6
239.614	11615.45
239.686	11527.77
239.758	11588.74
239.829	11547.38
239.901	11617.69
239.973	11641.45
240.044	11677.7
240.116	11689.99
240.188	11705.17
240.259	11725.99
240.331	11716.93
240.403	11759.1
240.474	11713.4
240.546	11703.86
240.618	11639.42
240.689	11639.51
240.761	11668.05
240.833	11739.91
240.904	11741.89
240.976	11747.34
241.048	11777.51
241.119	11821.66
241.191	11877.48
241.262	11945.01
241.334	11954.36
241.405	11960.15
241.477	11963.81
241.549	11972.68
241.62	12010.81
241.692	12056.4
241.763	12119.6
241.835	12139.6
241.906	12155.8
241.978	12119.31
242.049	12194.74
242.121	12261.55
242.192	12349.86
242.264	12312.11
242.335	12262.47
242.407	12311.1
242.478	12311.05
242.55	12334.58
242.621	12320.31
242.693	12314.38
242.764	12305.7
242.836	12311.44
242.907	12342.77
242.979	12378.68
243.05	12410.21
243.122	12437.3
243.193	12442.07
243.264	12359.35
243.336	12370.39
243.407	12412.62
243.479	12510.28
243.55	12531.25
243.622	12548.36
243.693	12534.82
243.764	12613.1
243.836	12593.53
243.907	12588.71
243.978	12601.34
244.05	12625.78
244.121	12573.86
244.192	12623.03
244.264	12577.53
244.335	12588.9
244.407	12544.22
244.478	12565.14
244.549	12557.86
244.62	12506.57
244.692	12513.37
244.763	12574.54
244.834	12564.27
244.906	12542.53
244.977	12560.36
245.048	12617.06
245.119	12589.05
245.191	12570.01
245.262	12501.51
245.333	12588.56
245.405	12609.29
245.476	12645.93
245.547	12662.75
245.618	12721.12
245.689	12734.28
245.761	12773.28
245.832	12787.07
245.903	12837.15
245.974	12871.23
246.045	12886.42
246.117	12982.11
246.188	12959.64
246.259	12942.82
246.33	12964.85
246.401	12976.27
246.473	12936.74
246.544	12920.11
246.615	12995.56
246.686	13002.4
246.757	13082.8
246.828	13064.68
246.899	13140.8
246.97	13107.1
247.042	13101.03
247.113	13160.95
247.184	13260.3
247.255	13259.09
247.326	13281.32
247.397	13291.25
247.468	13296.89
247.539	13308.41
247.61	13261.26
247.681	13316.27
247.752	13376.19
247.823	13353.38
247.894	13377.01
247.965	13357.43
248.037	13343.7
248.108	13281.17
248.179	13295.2
248.25	13298.19
248.321	13323.11
248.392	13277.41
248.463	13365.24
248.534	13365.34
248.605	13379.32
248.675	13354.69
248.746	13378.45
248.817	13398.94
248.888	13420.05
248.959	13365.44
249.03	13396.39
249.101	13406.65
249.172	13394.02
249.243	13311.5
249.314	13382.5
249.385	13385.73
249.456	13417.98
249.527	13413.64
249.598	13450.72
249.669	13449.37
249.739	13458.38
249.81	13473.52
249.881	13424.35
249.952	13416.15
250.023	13418.51
250.094	13363.7
250.165	13328.03
250.235	13323.55
250.306	13333.58
250.377	13299.25
250.448	13327.31
250.519	13262.04
250.59	13323.79
250.66	13322.15
250.731	13402.99
250.802	13402.8
250.873	13431.24
250.944	13449.8
251.014	13447.29
251.085	13540.76
251.156	13572.34
251.227	13630.57
251.297	13687.11
251.368	13748.96
251.439	13798.33
251.51	13854.05
251.58	13844.12
251.651	13842.96
251.722	13900.76
251.792	13848.84
251.863	13856.46
251.934	13928.82
252.005	14053.14
252.075	14066.98
252.146	14125.06
252.217	14186.72
252.287	14233
252.358	14239.5
252.429	14320.97
252.499	14309.93
252.57	14325.02
252.641	14379.01
252.711	14377.56
252.782	14329.98
252.852	14411.35
252.923	14408.22
252.994	14421.96
253.064	14476.09
253.135	14454.64
253.205	14431.6
253.276	14511.09
253.347	14577.76
253.417	14549.32
253.488	14525.07
253.558	14510.18
253.629	14507.72
253.699	14519.38
253.77	14541.22
253.841	14531.67
253.911	14546.91
253.982	14569.27
254.052	14597.95
254.123	14605.14
254.193	14614.44
254.264	14762.56
254.334	14724.29
254.405	14691.9
254.475	14659.26
254.546	14667.89
254.616	14733.88
254.687	14769.75
254.757	14799.73
254.827	14807.78
254.898	14840.42
254.968	14845.19
255.039	14825.71
255.109	14872.76
255.18	14842.54
255.25	14772.3
255.321	14814.72
255.391	14768.26
255.461	14858.3
255.532	14763.58
255.602	14757.9
255.673	14702.46
255.743	14662.46
255.813	14590.82
255.884	14642.06
255.954	14679.52
256.024	14747.53
256.095	14750.67
256.165	14712.44
256.235	14728.97
256.306	14706.8
256.376	14755.1
256.446	14806.19
256.517	14847.46
256.587	14888.96
256.657	14918.12
256.728	14946.85
256.798	14953.89
256.868	14951
256.938	14923.76
257.009	14976.74
257.079	15010.43
257.149	15113.93
257.219	15047.6
257.29	15089.59
257.36	15034.68
257.43	15079.36
257.5	15013.09
257.571	15011.01
257.641	15050.97
257.711	15012.85
257.781	15054.59
257.852	15073.73
257.922	15001.33
257.992	15004.51
258.062	14996.84
258.132	15031.6
258.202	15040.37
258.273	15055.07
258.343	15132.68
258.413	15123.18
258.483	15128.72
258.553	15102.6
258.623	15081.63
258.693	15126.7
258.764	15203.78
258.834	15281.72
258.904	15300.62
258.974	15296.95
259.044	15303.03
259.114	15335.61
259.184	15367.95
259.254	15374.17
259.324	15313.63
259.394	15368.2
259.464	15453.42
259.535	15458.62
259.605	15455.68
259.675	15445.75
259.745	15485.52
259.815	15466.04
259.885	15459.05
259.955	15590.92
260.025	15579.01
260.095	15584.65
260.165	15616.41
260.235	15679.7
260.305	15660.51
260.375	15625.66
260.445	15716.72
260.515	15791.43
260.585	15836.06
260.655	15854.86
260.725	15908.21
260.795	15954.82
260.865	16029.24
260.934	15996.95
261.004	16031.6
261.074	16038.11
261.144	16109.98
261.214	16144.83
261.284	16141.84
261.354	16197.22
261.424	16146.38
261.494	16227.55
261.564	16231.5
261.634	16262.64
261.703	16195.02
261.773	16230.98
261.843	16271.03
261.913	16262.4
261.983	16197.53
262.053	16224.52
262.123	16209.14
262.192	16166.97
262.262	16214.49
262.332	16164.8
262.402	16197.47
262.472	16206.92
262.541	16142.19
262.611	16189.47
262.681	16165.13
262.751	16207.98
262.821	16207.45
262.89	16172.99
262.96	16202.29
263.03	16294.39
263.1	16303.89
263.169	16322.88
263.239	16351.22
263.309	16417.97
263.379	16457.63
263.448	16486.26
263.518	16508.96
263.588	16535.52
263.657	16610.03
263.727	16641.7
263.797	16648.93
263.867	16645.07
263.936	16595.91
264.006	16660.5
264.076	16650.33
264.145	16650.19
264.215	16632.79
264.285	16671.15
264.354	16616.06
264.424	16590.71
264.494	16539.86
264.563	16538.61
264.633	16631.48
264.702	16651.53
264.772	16585.31
264.842	16572.01
264.911	16598.62
264.981	16560.74
265.05	16570.81
265.12	16563.58
265.19	16578.81
265.259	16634.47
265.329	16668.11
265.398	16703.54
265.468	16810.97
265.537	16810.1
265.607	16844.56
265.676	16895.98
265.746	16926.73
265.815	16995.32
265.885	17005.87
265.955	16990.35
266.024	16993.68
266.094	16925.34
266.163	16992.47
266.232	17070.02
266.302	17087.27
266.371	17120.67
266.441	17136.67
266.51	17190.26
266.58	17197.3
266.649	17183.32
266.719	17230.84
266.788	17259.66
266.858	17340.77
266.927	17262.84
266.996	17282.17
267.066	17311.56
267.135	17280.04
267.205	17323.13
267.274	17344.62
267.343	17408.82
267.413	17428.58
267.482	17486.74
267.552	17542.99
267.621	17493.4
267.69	17444.1
267.76	17474.31
267.829	17498.41
267.898	17527.08
267.968	17500.63
268.037	17537.73
268.106	17585.78
268.176	17558.79
268.245	17577.06
268.314	17565.44
268.384	17630.89
268.453	17651.57
268.522	17681.3
268.592	17748.38
268.661	17734.31
268.73	17769.88
268.799	17750.84
268.869	17833.44
268.938	17784.48
269.007	17776.58
269.076	17805.35
269.146	17869.11
269.215	17902.74
269.284	17975.22
269.353	17960.77
269.422	17973.68
269.492	17968.19
269.561	17885.59
269.63	17919.32
269.699	17909.59
269.768	17919.46
269.838	17943.37
269.907	18001.82
269.976	17961.87
270.045	17899.61
270.114	17938.88
270.183	17947.75
270.253	17986.54
270.322	17944.13
270.391	17978.78
270.46	18050.49
270.529	18089.53
270.598	18134.29
270.667	18136.56
270.736	18102.2
270.806	18146.01
270.875	18206.15
270.944	18218.34
271.013	18353.37
271.082	18381.13
271.151	18431.44
271.22	18391.59
271.289	18407.78
271.358	18410.28
271.427	18459.53
271.496	18499.01
271.565	18498.09
271.634	18517.32
271.703	18647.68
271.772	18709.31
271.841	18718.56
271.91	18682.81
271.979	18707.24
272.048	18673.02
272.117	18718.03
272.186	18724.44
272.255	18777.45
272.324	18827.04
272.393	18860.53
272.462	18846.32
272.531	18874.75
272.6	18879.52
272.669	18957.54
272.738	18956.33
272.807	18987.85
272.876	18966.7
272.945	19121.39
273.013	19180.71
273.082	19249.38
273.151	19147.17
273.22	19176.85
273.289	19200.99
273.358	19285.71
273.427	19289.57
273.496	19345.08
273.564	19379.54
273.633	19441.17
273.702	19420.6
273.771	19420.11
273.84	19456.4
273.909	19490.62
273.977	19517.99
274.046	19527.63
274.115	19587.48
274.184	19584.44
274.253	19590.08
274.322	19672.73
274.39	19595.57
274.459	19585.12
274.528	19534.03
274.597	19563.29
274.665	19594.32
274.734	19673.26
274.803	19674.94
274.872	19698.31
274.94	19685.4
275.009	19835.79
275.078	19824.75
275.147	19871.79
275.215	19911.69
275.284	19988.46
275.353	20006.29
275.421	19979.11
275.49	20088.17
275.559	20103.31
275.627	20137.18
275.696	20159.88
275.765	20203.88
275.833	20223.88
275.902	20266.82
275.971	20351.59
276.039	20439.83
276.108	20494.19
276.177	20527.83
276.245	20547.59
276.314	20577.81
276.383	20647.93
276.451	20559.42
276.52	20623.03
276.588	20697.45
276.657	20754.17
276.725	20751.28
276.794	20796.39
276.863	20875.14
276.931	20830.99
277	20893.84
277.068	20965.94
277.137	21082
277.205	21110.24
277.274	21218.54
277.342	21309.35
277.411	21285.2
277.48	21281.59
277.548	21303.42
277.617	21342.75
277.685	21358.71
277.754	21413.84
277.822	21426.28
277.89	21525.2
277.959	21536.48
278.027	21518.5
278.096	21519.61
278.164	21657.83
278.233	21676.91
278.301	21689.06
278.37	21748.54
278.438	21748.3
278.507	21805.22
278.575	21749.26
278.643	21783.91
278.712	21760.39
278.78	21735.9
278.849	21820.73
278.917	21901.33
278.985	21920.9
279.054	21972.1
279.122	22066.24
279.191	22110.06
279.259	22146.98
279.327	22102.48
279.396	22210.95
279.464	22246.67
279.532	22314.84
279.601	22336.11
279.669	22367.1
279.737	22454.7
279.806	22502.81
279.874	22578.94
279.942	22613.75
280.011	22655.68
280.079	22715.76
280.147	22819.75
280.215	22883.19
280.284	22910.77
280.352	22906.38
280.42	22976.54
280.488	22991
280.557	23002.04
280.625	23052.72
280.693	23100.3
280.761	23158.89
280.83	23132.56
280.898	23204.3
280.966	23186.75
281.034	23121.79
281.102	23118.27
281.171	23139.54
281.239	23224.76
281.307	23230.84
281.375	23235.66
281.443	23365
281.512	23404.21
281.58	23468.51
281.648	23453.9
281.716	23491.56
281.784	23536.84
281.852	23550.83
281.92	23588.93
281.989	23669.57
282.057	23658.86
282.125	23870.71
282.193	23905.63
282.261	23957.67
282.329	23994.8
282.397	24064.82
282.465	24127.71
282.533	24227.96
282.601	24232.64
282.67	24182.62
282.738	24212.67
282.806	24288.96
282.874	24281.44
282.942	24336.1
283.01	24358.25
283.078	24438.22
283.146	24474.48
283.214	24545.93
283.282	24612.12
283.35	24697.72
283.418	24714.37
283.486	24766.8
283.554	24646.49
283.622	24690.73
283.69	24734.44
283.758	24762.42
283.826	24821.28
283.894	24899.26
283.962	25011.33
284.03	25110.92
284.098	25160.7
284.165	25186.03
284.233	25236.16
284.301	25258.12
284.369	25268.16
284.437	25276.07
284.505	25294.65
284.573	25386.67
284.641	25386.47
284.709	25449.33
284.777	25423.75
284.845	25496.44
284.912	25574.24
284.98	25634.66
285.048	25657.73
285.116	25716.28
285.184	25814.56
285.252	25855.68
285.319	25838.12
285.387	25846.86
285.455	25834.84
285.523	25911.24
285.591	25953.18
285.659	25999.62
285.726	26094.15
285.794	26089.08
285.862	26135.71
285.93	26185.38
285.997	26221.5
286.065	26256.44
286.133	26263.49
286.201	26313.79
286.269	26312.73
286.336	26322.96
286.404	26349.32
286.472	26427.5
286.539	26400.86
286.607	26383.37
286.675	26426.88
286.743	26508.14
286.81	26530.6
286.878	26622.74
286.946	26646.45
287.013	26696.9
287.081	26742.16
287.149	26725.59
287.216	26851.15
287.284	26883.16
287.352	26928.7
287.419	26952.8
287.487	27054.38
287.555	27107.76
287.622	27148.42
287.69	27216.15
287.758	27303.88
287.825	27326.53
287.893	27336.28
287.96	27405.04
288.028	27493.64
288.096	27542.59
288.163	27592.31
288.231	27602.69
288.298	27652.13
288.366	27743.75
288.433	27772.25
288.501	27791.86
288.569	27848.53
288.636	27861.43
288.704	27950.36
288.771	28023.28
288.839	28043.86
288.906	28058.6
288.974	28143.69
289.041	28181.91
289.109	28192.73
289.176	28264.73
289.244	28331.94
289.311	28416.58
289.379	28500.47
289.446	28536
289.514	28582.95
289.581	28621.43
289.649	28679.86
289.716	28711.63
289.783	28726.62
289.851	28843.11
289.918	28883.52
289.986	28972.77
290.053	29036.35
290.121	29072.09
290.188	29124.9
290.255	29276.52
290.323	29313.45
290.39	29337.3
290.458	29412.29
290.525	29504.22
290.592	29522.36
290.66	29577.78
290.727	29598.24
290.794	29682.6
290.862	29737.84
290.929	29794.1
290.996	29847.65
291.064	29923.49
291.131	30021.19
291.198	30120.87
291.266	30157.2
291.333	30218.67
291.4	30278.34
291.468	30386.47
291.535	30408.97
291.602	30457.65
291.669	30470.18
291.737	30529.78
291.804	30572.23
291.871	30673.57
291.938	30729.53
292.006	30884.45
292.073	30972.29
292.14	31066.43
292.207	31088.84
292.275	31131
292.342	31210.69
292.409	31343.61
292.476	31475
292.543	31488.17
292.611	31524.39
292.678	31636.16
292.745	31763.69
292.812	31839.92
292.879	31865.11
292.946	31942.81
293.014	32045.97
293.081	32130.3
293.148	32226.47
293.215	32325.57
293.282	32343.3
293.349	32433.41
293.416	32398.51
293.484	32484.7
293.551	32555.82
293.618	32660.36
293.685	32798.16
293.752	32810.17
293.819	32844.68
293.886	32844.82
293.953	32915.36
294.02	32997.21
294.087	33056.63
294.154	33081.59
294.221	33179.32
294.288	33229.77
294.356	33343.76
294.423	33400.09
294.49	33414.53
294.557	33500.66
294.624	33523.15
294.691	33639.18
294.758	33684.61
294.825	33763.33
294.892	33783.35
294.959	33838.33
295.026	33909.89
295.093	33922.74
295.16	33980.41
295.226	34029.58
295.293	34164.84
295.36	34222.19
295.427	34306.34
295.494	34388.21
295.561	34459.97
295.628	34583.92
295.695	34676.49
295.762	34723.78
295.829	34813.62
295.896	34920.31
295.963	34998.75
296.03	35082.12
296.096	35155.13
296.163	35237.21
296.23	35340.64
296.297	35438.23
296.364	35493.38
296.431	35566.65
296.498	35624.08
296.564	35770.77
296.631	35823.36
296.698	35806.18
296.765	35942.09
296.832	35959.51
296.899	35972.8
296.965	36085.63
297.032	36062.66
297.099	36190.42
297.166	36274.19
297.233	36300.49
297.299	36320.49
297.366	36376.06
297.433	36433.32
297.5	36520.27
297.566	36585.9
297.633	36636.33
297.7	36693.36
297.767	36727.43
297.833	36797.92
297.9	36842.42
297.967	36830.38
298.033	36942.72
298.1	37110.71
298.167	37123.14
298.234	37187.99
298.3	37271.1
298.367	37308.39
298.434	37394.29
298.5	37411.33
298.567	37445.42
298.634	37505.52
298.7	37623.11
298.767	37677.64
298.834	37785.73
298.9	37802.72
298.967	37823.21
299.033	37911.56
299.1	38020.73
299.167	38127.01
299.233	38149.55
299.3	38261.72
299.366	38374.41
299.433	38465.3
299.5	38423.24
299.566	38487.1
299.633	38601.23
299.699	38688.66
299.766	38725.77
299.832	38782.12
299.899	38856.11
299.965	38945.14
300.032	38981.42
300.099	39051.57
300.165	39122.79
300.232	39143.29
300.298	39205.07
300.365	39301.4
300.431	39337.16
300.498	39367.67
300.564	39435.34
300.631	39541.35
300.697	39635.8
300.763	39692.4
300.83	39724.33
300.896	39827.86
300.963	39914.49
301.029	39978.24
301.096	40037.48
301.162	40136.26
301.229	40157.69
301.295	40159.73
301.361	40216.78
301.428	40289.94
301.494	40284.79
301.561	40337.22
301.627	40408.9
301.693	40451.36
301.76	40518.38
301.826	40544.86
301.892	40626.9
301.959	40712.1
302.025	40744.76
302.092	40762.84
302.158	40841.14
302.224	40906.61
302.291	40910.65
302.357	40945.84
302.423	40966.98
302.49	40986.86
302.556	41054.13
302.622	41111.54
302.688	41201.5
302.755	41292.75
302.821	41352.33
302.887	41450.07
302.954	41502.96
303.02	41566.93
303.086	41646.74
303.152	41672.02
303.219	41715.96
303.285	41779.02
303.351	41831.38
303.417	41879.32
303.483	41900.46
303.55	41912.76
303.616	41952.15
303.682	41997.3
303.748	42006.63
303.815	42118.42
303.881	42200.64
303.947	42219.99
304.013	42269.97
304.079	42287.81
304.145	42258.54
304.212	42316.59
304.278	42324.32
304.344	42351.89
304.41	42366.09
304.476	42385.83
304.542	42429.73
304.608	42497.66
304.674	42475.63
304.741	42497.22
304.807	42559.9
304.873	42637.7
304.939	42737.25
305.005	42722.32
305.071	42769.53
305.137	42834.77
305.203	42779.23
305.269	42806.18
305.335	42883.27
305.401	42931.03
305.467	42971.15
305.533	43054.16
305.599	43112.57
305.666	43202.83
305.732	43251.66
305.798	43330.64
305.864	43455.03
305.93	43510.47
305.996	43551.43
306.062	43601.47
306.128	43640.43
306.194	43630.07
306.259	43668.94
306.325	43675.31
306.391	43748.32
306.457	43830.23
306.523	43884.99
306.589	44014.64
306.655	44030.94
306.721	44011.82
306.787	43995.96
306.853	44093.9
306.919	44081.49
306.985	44105.28
307.051	44110.64
307.117	44131.31
307.183	44147.56
307.248	44097.25
307.314	44144.39
307.38	44196.94
307.446	44264.86
307.512	44283.69
307.578	44341.09
307.644	44361.24
307.709	44405.03
307.775	44432.28
307.841	44445.95
307.907	44496.36
307.973	44475.33
308.039	44522.38
308.104	44579.65
308.17	44635.11
308.236	44618.71
308.302	44678.21
308.368	44672.18
308.433	44720.54
308.499	44744.53
308.565	44765.31
308.631	44813.33
308.696	44800.1
308.762	44793.48
308.828	44826.48
308.894	44801.86
308.959	44784.59
309.025	44797.97
309.091	44830.58
309.156	44850.15
309.222	44905.19
309.288	44883.83
309.354	44851.67
309.419	44889.19
309.485	44883.84
309.551	44941.12
309.616	44935.14
309.682	44958.4
309.748	44979.47
309.813	44988.43
309.879	45011.93
309.945	45012.95
310.01	45018.99
310.076	45064.98
310.141	45088.34
310.207	45069.41
310.273	45122.25
310.338	45187.41
310.404	45171.74
310.469	45165.17
310.535	45175
310.601	45127.59
310.666	45186.83
310.732	45264.8
310.797	45255.26
310.863	45244.99
310.928	45251.46
310.994	45312.12
311.059	45335.73
311.125	45366.44
311.191	45445.32
311.256	45438.65
311.322	45492.1
311.387	45483.73
311.453	46290.27
311.518	46313.01
311.584	46358.09
311.649	46421.72
311.715	46411.5
311.78	46467.57
311.846	46479.79
311.911	46532.42
311.976	46582.36
312.042	46570.97
312.107	46547.41
312.173	46564.59
312.238	46602.41
312.304	46630.16
312.369	46639.32
312.434	46641.85
312.5	46657.57
312.565	46577.67
312.631	46632.09
312.696	46634.72
312.761	46675.85
312.827	45908.55
312.892	46007.59
312.958	46025.51
313.023	46046.65
313.088	46094.51
313.154	46072.12
313.219	46075.43
313.284	46073.09
313.35	46102.79
313.415	46109.12
313.48	46126.69
313.546	46167.8
313.611	46230.08
313.676	46234.99
313.741	46230.32
313.807	46300.02
313.872	46345.45
313.937	46406.7
314.003	46473.05
314.068	46518
314.133	46583.22
314.198	46582.15
314.264	46545.84
314.329	46546.62
314.394	46548.96
314.459	46560.89
314.525	46672.52
314.59	46700.76
314.655	46693.75
314.72	46739.06
314.785	46783.37
314.851	46795.2
314.916	46759.55
314.981	46744.45
315.046	46736.32
315.111	46726.68
315.176	46708.55
315.242	46750.65
315.307	46779.19
315.372	46751.57
315.437	46743.77
315.502	46738.61
315.567	46798.48
315.632	46782.99
315.698	46814.07
315.763	46839.85
315.828	46840.24
315.893	46835.02
315.958	46838.19
316.023	46841.21
316.088	46795.51
316.153	46731.92
316.218	46729.97
316.283	46685.92
316.348	46635.28
316.413	46649.31
316.479	46611.63
316.544	46500.38
316.609	46390.46
316.674	46256.68
316.739	46131.52
316.804	46021
316.869	45898.5
316.934	45763.9
316.999	45633.69
317.064	45437.58
317.129	45261.78
317.194	45100.88
317.259	44906.55
317.324	44695.44
317.389	44505.29
317.454	44342.61
317.518	44214.12
317.583	44089.7
317.648	43973.68
317.713	43822.05
317.778	43579.13
317.843	43440.5
317.908	43269.02
317.973	43097.43
318.038	42961.7
318.103	42787.24
318.168	42630.5
318.233	42474.06
318.297	42245.38
318.362	42078.56
318.427	41891.42
318.492	41744.78
318.557	41544.72
318.622	41390.76
318.687	41256.58
318.751	41067.89
318.816	40891.16
318.881	40698.9
318.946	40450.99
319.011	40229.35
319.075	40015.46
319.14	39820.21
319.205	39604.67
319.27	39412.06
319.335	39181.22
319.399	38968.01
319.464	38788.48
319.529	38520.54
319.594	38292.49
319.658	38110.81
319.723	37876.79
319.788	37690.31
319.853	37412.08
319.917	37220.09
319.982	36950.3
320.047	36726.77
320.112	36542.24
320.176	36272.88
320.241	36046.33
320.306	35845.34
320.37	35625.06
320.435	35428.32
320.5	35240.32
320.564	34993.03
320.629	34751.33
320.694	34540.67
320.758	34306.25
320.823	34059.69
320.888	33875.82
320.952	33608.67
321.017	33359.81
321.082	33130.57
321.146	32929.78
321.211	32723.47
321.275	32476.03
321.34	32224.63
321.405	31981.78
321.469	31730.63
321.534	31497.09
321.598	31235.09
321.663	31027.92
321.727	30812.94
321.792	30544.12
321.857	30286.87
321.921	30061.02
321.986	29820.7
322.05	29527.01
322.115	29293.4
322.179	29035.45
322.244	28732.49
322.308	28521.04
322.373	28255.32
322.437	28001.49
322.502	27796.63
322.566	27543.71
322.631	27315.54
322.695	27079.63
322.76	26822.71
322.824	26594.61
322.889	26338.59
322.953	26080.64
323.018	25749.34
323.082	25418.59
323.146	25124.14
323.211	24822.65
323.275	24548.77
323.34	24272.99
323.404	24045.77
323.468	23772.97
323.533	23518.51
323.597	23247.88
323.662	22943.67
323.726	22714.77
323.79	22441.19
323.855	22090.87
323.919	21788.93
323.983	21519.57
324.048	21116.03
324.112	21327.99
324.177	20490.01
324.241	19376.08
324.305	18280.43
324.37	17203.17
324.434	16160.89
324.498	15879.42
324.562	15570.18
324.627	15212.08
324.691	14863.7
324.755	14455.21
324.82	13993.53
324.884	13499.87
324.948	13021.35
325.012	12433.31
325.077	11694.55
