Data from 20250701_urea_2M_exp3_MAYP1162681_08-09-52-121.txt Node
Date: Wed Jul 02 08:09:52 BST 2025
User: adleo
Spectrometer: MAYP116268
Trigger mode: 0
Integration Time (sec): 4.000000E0
Scans to average: 1
Electric dark correction enabled: true
Nonlinearity correction enabled: true
Boxcar width: 10
XAxis mode: Wavelengths
Number of Pixels in Spectrum: 2068
>>>>>Begin Spectral Data<<<<<
179.565	3806.49
179.642	4012.52
179.718	4167.17
179.795	4301.09
179.871	4412.65
179.948	4477.73
180.024	4554.22
180.101	4636.54
180.177	4692.6
180.254	4772.06
180.33	4849.91
180.407	5124.36
180.483	5420.57
180.56	5722.24
180.636	6000.09
180.712	5953.81
180.789	5992.82
180.865	6032.67
180.942	6063.41
181.018	6100.17
181.095	6151.12
181.171	6163.93
181.248	6163.16
181.324	6215.26
181.4	6242.19
181.477	6284.48
181.553	6327.8
181.63	6396.55
181.706	6451.48
181.782	6475.42
181.859	6471.82
181.935	6485.99
182.011	6478.26
182.088	6533.39
182.164	6597.29
182.24	6638.9
182.317	6678.59
182.393	6671.2
182.469	6719.75
182.546	6772
182.622	6788.23
182.698	6772.42
182.775	6815.03
182.851	6859.45
182.927	6835.1
183.003	6821.08
183.08	6798.03
183.156	6833.14
183.232	6823.09
183.308	6778.91
183.385	6809.06
183.461	6871.36
183.537	6882.56
183.613	6927.72
183.69	6898.7
183.766	6858.04
183.842	6882.06
183.918	6900.7
183.995	6942.2
184.071	6953.15
184.147	6929.42
184.223	6885.59
184.299	6920.67
184.375	6881.19
184.452	6906.19
184.528	7035.41
184.604	7073.21
184.68	7116.59
184.756	7141.15
184.832	7157.78
184.908	7179.04
184.985	7176.5
185.061	7125
185.137	7153.74
185.213	7108.63
185.289	7112.08
185.365	7092.83
185.441	7091.43
185.517	7135.66
185.593	7122.79
185.669	7114.86
185.745	7157.48
185.822	7218.32
185.898	7189.29
185.974	7225.22
186.05	7201.62
186.126	7118.9
186.202	7096.8
186.278	7086.28
186.354	7050.76
186.43	7074.27
186.506	7068.8
186.582	7065.15
186.658	7084.26
186.734	7016.73
186.81	7022.68
186.886	7038.68
186.962	7083.83
187.038	7069.9
187.114	7042.01
187.19	7077.1
187.266	7048.23
187.341	7044.96
187.417	7019.06
187.493	7022.57
187.569	7027.23
187.645	7002.78
187.721	6967.5
187.797	6994.02
187.873	7004.59
187.949	6985.72
188.025	6957.69
188.101	6968.88
188.176	6984.97
188.252	6973.59
188.328	6996.63
188.404	6999.95
188.48	6975.45
188.556	6949.41
188.632	6949.07
188.707	6948.97
188.783	6936.14
188.859	6914.06
188.935	6878.93
189.011	6907.27
189.086	6884.75
189.162	6855.11
189.238	6844.97
189.314	6839.59
189.39	6817.4
189.465	6797.89
189.541	6855.65
189.617	6805.36
189.693	6786.44
189.768	6801.96
189.844	6885.22
189.92	6856.04
189.996	6884.96
190.071	6926.47
190.147	6922.14
190.223	6954.68
190.298	6928.73
190.374	6882.66
190.45	6927.89
190.526	6952.35
190.601	6930.97
190.677	6936.49
190.753	7037.22
190.828	7055.32
190.904	7102.95
190.98	7156.11
191.055	7192.39
191.131	7159.76
191.207	7233.45
191.282	7267.03
191.358	7225.66
191.433	7172.53
191.509	7216.07
191.585	7210.88
191.66	7211.7
191.736	7242.98
191.811	7209.34
191.887	7271.89
191.963	7353.4
192.038	7367.38
192.114	7374.83
192.189	7387.95
192.265	7377.53
192.34	7303.17
192.416	7293.85
192.491	7279.09
192.567	7287.85
192.642	7288.33
192.718	7291.74
192.793	7249.4
192.869	7234.74
192.944	7256.35
193.02	7283.23
193.095	7302.64
193.171	7314.13
193.246	7310.38
193.322	7297.5
193.397	7302.3
193.473	7249.75
193.548	7186.29
193.624	7204.85
193.699	7195.72
193.775	7250.97
193.85	7256.78
193.925	7284.95
194.001	7286.63
194.076	7270.67
194.152	7236.34
194.227	7213.36
194.302	7176.14
194.378	7191.28
194.453	7180.42
194.529	7215.61
194.604	7165.43
194.679	7144.87
194.755	7087.37
194.83	7136.09
194.905	7125.9
194.981	7155.94
195.056	7131.25
195.131	7154.79
195.207	7150.8
195.282	7123.03
195.357	7055.53
195.433	7106.7
195.508	7063.11
195.583	7086.94
195.659	7126.07
195.734	7143.04
195.809	7143.72
195.884	7178.92
195.96	7178.29
196.035	7229.47
196.11	7217.3
196.185	7261.04
196.261	7273.62
196.336	7377.05
196.411	7325.35
196.486	7346.88
196.561	7320.16
196.637	7351.63
196.712	7409.19
196.787	7419.44
196.862	7468.07
196.937	7498.92
197.013	7520.08
197.088	7557.09
197.163	7628.99
197.238	7689.97
197.313	7692.9
197.388	7734.34
197.464	7839.55
197.539	7878.83
197.614	7857.34
197.689	7899.32
197.764	7953.21
197.839	8024.24
197.914	8005.09
197.989	8081.96
198.065	8130.1
198.14	8305.24
198.215	8396.79
198.29	8431.69
198.365	8476.25
198.44	8508.43
198.515	8613.29
198.59	8665.65
198.665	8757.32
198.74	8785.58
198.815	8789.34
198.89	8864.17
198.965	8971.34
199.04	8956.37
199.115	9010.65
199.19	9155.46
199.265	9164.46
199.34	9197.06
199.415	9306.72
199.49	9376.85
199.565	9403.04
199.64	9484.07
199.715	9472.32
199.79	9495.05
199.865	9522.16
199.94	9512.97
200.015	9626.71
200.09	9637.21
200.165	9657.73
200.24	9680.17
200.315	9814.8
200.39	9867.68
200.464	9889.98
200.539	9890.65
200.614	9945.17
200.689	10021.27
200.764	10043.97
200.839	10108.82
200.914	10124.86
200.989	10094.69
201.063	10145.85
201.138	10087.13
201.213	10087.27
201.288	10026.01
201.363	10043.88
201.438	10035.59
201.512	10093.8
201.587	10028.24
201.662	10038.31
201.737	10079.01
201.812	10106.57
201.886	9989.52
201.961	10021.66
202.036	9981.31
202.111	9972.4
202.186	9871.6
202.26	9819.76
202.335	9745.72
202.41	9720.68
202.485	9663.77
202.559	9591.39
202.634	9501.53
202.709	9537.48
202.784	9466.74
202.858	9466.55
202.933	9399.95
203.008	9378.48
203.082	9312.33
203.157	9314.93
203.232	9170.32
203.306	9098.75
203.381	8987.09
203.456	8913.34
203.53	8833.42
203.605	8762.22
203.68	8678.44
203.754	8653.87
203.829	8591.1
203.904	8518.83
203.978	8480.17
204.053	8490.95
204.127	8451.16
204.202	8445.24
204.277	8379.86
204.351	8362.15
204.426	8335.19
204.5	8306.42
204.575	8189.84
204.65	8223.63
204.724	8193.78
204.799	8221.47
204.873	8207.31
204.948	8202.22
205.022	8161.01
205.097	8130.44
205.171	8180.46
205.246	8209.24
205.32	8209.38
205.395	8215.78
205.469	8192.18
205.544	8208.01
205.618	8149.56
205.693	8182.95
205.767	8136.53
205.842	8210.92
205.916	8188.36
205.991	8152.81
206.065	8169.98
206.14	8225.4
206.214	8202.68
206.289	8174.48
206.363	8219.46
206.438	8228.41
206.512	8253.29
206.586	8323.46
206.661	8350.61
206.735	8273.54
206.81	8280.66
206.884	8329.15
206.958	8284.85
207.033	8333.94
207.107	8362.97
207.181	8470.93
207.256	8450.33
207.33	8513.45
207.405	8556.79
207.479	8618.82
207.553	8651.19
207.628	8598.63
207.702	8631.78
207.776	8616.14
207.851	8630.57
207.925	8683.82
207.999	8669.05
208.073	8656.3
208.148	8659.33
208.222	8615.33
208.296	8727.5
208.371	8783.46
208.445	8819.37
208.519	8913.79
208.593	8959.36
208.668	8939.77
208.742	8946.94
208.816	8956.86
208.89	9007.8
208.965	8997.11
209.039	9028.7
209.113	9084.74
209.187	9154.48
209.261	9145.68
209.336	9210.62
209.41	9275.76
209.484	9273.21
209.558	9347.7
209.632	9397.18
209.707	9437.73
209.781	9511.97
209.855	9565.14
209.929	9614.96
210.003	9638.22
210.077	9636.2
210.151	9802.25
210.226	9921.19
210.3	10020.03
210.374	10099.04
210.448	10110.94
210.522	10151.6
210.596	10182.81
210.67	10211.04
210.744	10363.27
210.818	10473.5
210.892	10546.69
210.966	10533.35
211.041	10590.1
211.115	10579.26
211.189	10661.16
211.263	10721.48
211.337	10743.98
211.411	10794.81
211.485	10773.32
211.559	10810.75
211.633	10821.44
211.707	10710.4
211.781	10729.78
211.855	10600.79
211.929	10568.33
212.003	10500.77
212.077	10532.76
212.151	10579.7
212.225	10608.03
212.299	10575.59
212.373	10533.82
212.447	10512.23
212.52	10603.15
212.594	10600.75
212.668	10639.43
212.742	10584.79
212.816	10566.87
212.89	10545.96
212.964	10526.63
213.038	10534.83
213.112	10571.69
213.186	10615.29
213.26	10537.27
213.333	10381.86
213.407	10398.29
213.481	10402.96
213.555	10442.54
213.629	10399.07
213.703	10331.32
213.777	10321.01
213.85	10249.99
213.924	10352.2
213.998	10339.14
214.072	10306.95
214.146	10251.59
214.219	10232.32
214.293	10208.43
214.367	10197.2
214.441	10224.66
214.515	10180.05
214.588	10088.28
214.662	9960.16
214.736	9874.96
214.81	9888.58
214.883	9906.78
214.957	9849.87
215.031	9788.69
215.105	9688.46
215.178	9622.47
215.252	9583.32
215.326	9479.2
215.4	9387.85
215.473	9201.11
215.547	9118.9
215.621	9046.11
215.694	9050.78
215.768	8946.02
215.842	8881.76
215.915	8807.7
215.989	8686.22
216.063	8619.96
216.136	8594.69
216.21	8565.63
216.284	8573.67
216.357	8544.75
216.431	8495.23
216.504	8493.01
216.578	8551.59
216.652	8563.04
216.725	8533.34
216.799	8537.96
216.873	8517.9
216.946	8525.79
217.02	8490.06
217.093	8454.45
217.167	8358.9
217.24	8267.5
217.314	8232.01
217.387	8183.54
217.461	8133.99
217.535	8156.7
217.608	8096.24
217.682	8067.27
217.755	8084.2
217.829	8024.49
217.902	8003.76
217.976	7988.03
218.049	7943.83
218.123	7869.37
218.196	7866.92
218.27	7832
218.343	7751.36
218.417	7748.23
218.49	7722.65
218.563	7766.6
218.637	7780.7
218.71	7856.56
218.784	7893.36
218.857	7932.27
218.931	7953.61
219.004	7963.51
219.077	7981.42
219.151	8000.36
219.224	7993.77
219.298	7983.67
219.371	8034.33
219.444	7997.5
219.518	8003.61
219.591	8017.32
219.665	8117.49
219.738	8134.32
219.811	8118.17
219.885	8169.88
219.958	8204.91
220.031	8211.59
220.105	8232.23
220.178	8233.77
220.251	8203.21
220.325	8217.12
220.398	8231.46
220.471	8253.68
220.544	8288.56
220.618	8264.93
220.691	8293.12
220.764	8312.94
220.838	8341.66
220.911	8327.13
220.984	8419.01
221.057	8459.76
221.131	8485.74
221.204	8393.64
221.277	8466.9
221.35	8589.95
221.424	8584.8
221.497	8596.6
221.57	8621.56
221.643	8651.02
221.716	8698.39
221.79	8704.88
221.863	8717.78
221.936	8727.84
222.009	8741.26
222.082	8772.46
222.155	8780.64
222.229	8846.07
222.302	8876.82
222.375	8887.31
222.448	8926.54
222.521	8924.43
222.594	8921.78
222.667	8892.68
222.74	8944.03
222.814	8930.93
222.887	8913.54
222.96	8967.56
223.033	9004.83
223.106	9031.73
223.179	9062.84
223.252	9077.53
223.325	9106.79
223.398	9116.32
223.471	9142.75
223.544	9170.18
223.617	9182.7
223.69	9210.38
223.763	9172.15
223.837	9191.26
223.91	9216.01
223.983	9162.87
224.056	9131.88
224.129	9159.17
224.202	9215.42
224.275	9206.85
224.348	9181.67
224.42	9144.94
224.493	9082.5
224.566	9058.8
224.639	9075.56
224.712	9045.89
224.785	9031.25
224.858	9020.08
224.931	9005.2
225.004	8966.89
225.077	8962.36
225.15	8870.4
225.223	8860.82
225.296	8944.53
225.369	8885.09
225.442	8852.11
225.514	8874.58
225.587	8892.82
225.66	8900.28
225.733	8903.56
225.806	8909.33
225.879	8899.23
225.952	8864.58
226.025	8912.57
226.097	8964.01
226.17	8958.96
226.243	8899.23
226.316	8892.39
226.389	8902.07
226.461	8917.76
226.534	8934.51
226.607	8921.76
226.68	9010.26
226.753	9007.13
226.825	8921.25
226.898	8992.97
226.971	9000.82
227.044	9015.5
227.117	9025.41
227.189	9041.59
227.262	9073.04
227.335	9094.18
227.407	9086.62
227.48	9121.36
227.553	9133.88
227.626	9113.12
227.698	9118.13
227.771	9156.63
227.844	9135.3
227.916	9150.42
227.989	9121.43
228.062	9122.2
228.134	9214.18
228.207	9209.66
228.28	9203.93
228.352	9221.84
228.425	9215.1
228.498	9256.41
228.57	9238.07
228.643	9303.62
228.716	9294.52
228.788	9282.24
228.861	9281.8
228.934	9351.32
229.006	9364.51
229.079	9367.74
229.151	9353.05
229.224	9319.74
229.296	9344.25
229.369	9448.72
229.442	9496.45
229.514	9475.95
229.587	9518.56
229.659	9438.81
229.732	9450.03
229.804	9499.19
229.877	9580.46
229.949	9615.38
230.022	9677.53
230.094	9680.42
230.167	9660.38
230.239	9620.8
230.312	9612.71
230.384	9682.18
230.457	9676.69
230.529	9682.95
230.602	9683.72
230.674	9694.03
230.747	9739.51
230.819	9773.66
230.892	9656.01
230.964	9660.53
231.037	9696.34
231.109	9685.46
231.181	9727.69
231.254	9696.44
231.326	9672.41
231.399	9635.83
231.471	9607.66
231.544	9517.04
231.616	9564.9
231.688	9572.42
231.761	9562.26
231.833	9544.69
231.905	9457.84
231.978	9453.79
232.05	9436.51
232.122	9439.78
232.195	9415.85
232.267	9453.08
232.339	9426.59
232.412	9496.16
232.484	9468.99
232.556	9437.99
232.629	9514.64
232.701	9528.66
232.773	9541.37
232.846	9536.65
232.918	9544.45
232.99	9563.48
233.062	9609.23
233.135	9622.77
233.207	9586.5
233.279	9638.25
233.351	9682.46
233.424	9676.49
233.496	9654.77
233.568	9743.92
233.64	9702.85
233.713	9715.41
233.785	9707.9
233.857	9725.14
233.929	9667.7
234.001	9735.49
234.074	9798.7
234.146	9722.06
234.218	9722.63
234.29	9725.33
234.362	9715.8
234.434	9674.66
234.507	9638.97
234.579	9587.2
234.651	9567.26
234.723	9597.85
234.795	9614.12
234.867	9605.26
234.939	9677.12
235.012	9695.28
235.084	9702.94
235.156	9747.96
235.228	9736.74
235.3	9724.12
235.372	9737.56
235.444	9800.45
235.516	9721.58
235.588	9731.41
235.66	9748.89
235.732	9724.18
235.804	9919.83
235.876	9962.79
235.948	10027.63
236.02	10042.7
236.092	10056.71
236.164	10069.67
236.236	10071.31
236.308	10067.79
236.38	10092.79
236.452	10068.07
236.524	10087.68
236.596	10141.56
236.668	10171.43
236.74	10203.99
236.812	10229.13
236.884	10259.39
236.956	10270.71
237.028	10257.75
237.1	10239.89
237.172	10310.91
237.244	10389.39
237.316	10267.49
237.388	10252.84
237.46	10228.99
237.532	10291.76
237.604	10290.9
237.675	10370.5
237.747	10416.36
237.819	10405.38
237.891	10407.21
237.963	10396.71
238.035	10398.16
238.107	10290.12
238.178	10360.97
238.25	10356.3
238.322	10451.14
238.394	10404.65
238.466	10406.43
238.538	10457.15
238.609	10506.24
238.681	10453.47
238.753	10427.89
238.825	10455.16
238.897	10481.7
238.968	10568.11
239.04	10554.57
239.112	10664.37
239.184	10615.17
239.255	10614.88
239.327	10644.99
239.399	10675.05
239.471	10726.65
239.542	10761.15
239.614	10833.52
239.686	10743.98
239.758	10801.46
239.829	10763.29
239.901	10829.05
239.973	10845.97
240.044	10879.55
240.116	10888.18
240.188	10900.13
240.259	10920.22
240.331	10911.69
240.403	10958.09
240.474	10909.89
240.546	10893.37
240.618	10835.78
240.689	10836.02
240.761	10854.48
240.833	10926.76
240.904	10926.86
240.976	10923.29
241.048	10941.07
241.119	10980.98
241.191	11036.39
241.262	11101.7
241.334	11104.45
241.405	11106.43
241.477	11110.67
241.549	11116.98
241.62	11143.87
241.692	11194.18
241.763	11261.42
241.835	11277.52
241.906	11291.88
241.978	11259.64
242.049	11334.19
242.121	11396.6
242.192	11473.75
242.264	11440.55
242.335	11395.39
242.407	11440.89
242.478	11449.18
242.55	11469.32
242.621	11452.21
242.693	11444.79
242.764	11440.16
242.836	11447.97
242.907	11488.12
242.979	11524.79
243.05	11552.8
243.122	11580.32
243.193	11577.91
243.264	11503.54
243.336	11507.78
243.407	11547.88
243.479	11633.86
243.55	11648.03
243.622	11660.42
243.693	11660.52
243.764	11728.95
243.836	11701.78
243.907	11691.99
243.978	11692.62
244.05	11716.77
244.121	11673.1
244.192	11715.08
244.264	11663.56
244.335	11679.66
244.407	11629.1
244.478	11643.03
244.549	11633
244.62	11588.61
244.692	11585.34
244.763	11628.32
244.834	11614.15
244.906	11587.5
244.977	11604.56
245.048	11655.42
245.119	11633.68
245.191	11602.35
245.262	11539.75
245.333	11623.55
245.405	11637.96
245.476	11681.92
245.547	11706.69
245.618	11761.88
245.689	11780.39
245.761	11818.71
245.832	11820.39
245.903	11871.53
245.974	11904.21
246.045	11914.62
246.117	11999.41
246.188	11983.02
246.259	11963.89
246.33	11992.18
246.401	12001.72
246.473	11964.85
246.544	11953.42
246.615	12016.66
246.686	12027.65
246.757	12101.25
246.828	12078.55
246.899	12154.81
246.97	12120.83
247.042	12109.16
247.113	12152.45
247.184	12240.04
247.255	12240.62
247.326	12271.76
247.397	12269.49
247.468	12275.57
247.539	12299.28
247.61	12249.68
247.681	12300
247.752	12358.66
247.823	12328.1
247.894	12346.61
247.965	12322.94
248.037	12307.66
248.108	12248.47
248.179	12256.38
248.25	12246.2
248.321	12277.87
248.392	12226.97
248.463	12311.46
248.534	12305.58
248.605	12324.86
248.675	12301.53
248.746	12318.16
248.817	12334.41
248.888	12354.12
248.959	12295.46
249.03	12317.44
249.101	12341.06
249.172	12328.53
249.243	12245.53
249.314	12320.05
249.385	12326.03
249.456	12359.48
249.527	12355.38
249.598	12379
249.669	12378.33
249.739	12395.54
249.81	12403.34
249.881	12362.47
249.952	12352.54
250.023	12347.38
250.094	12293.15
250.165	12259.79
250.235	12252.8
250.306	12255.69
250.377	12222.19
250.448	12257.43
250.519	12187.25
250.59	12235.36
250.66	12233.09
250.731	12310.64
250.802	12300.71
250.873	12321.34
250.944	12340.62
251.014	12330.89
251.085	12424.74
251.156	12455.64
251.227	12514.02
251.297	12576.3
251.368	12628.21
251.439	12672.32
251.51	12727.81
251.58	12710.07
251.651	12704.57
251.722	12762.27
251.792	12708.53
251.863	12717.06
251.934	12772.78
252.005	12891.65
252.075	12895.12
252.146	12946.22
252.217	13001.17
252.287	13052.08
252.358	13054.11
252.429	13131.91
252.499	13131.52
252.57	13138.08
252.641	13183.63
252.711	13188.84
252.782	13140.44
252.852	13219.79
252.923	13213.91
252.994	13228.18
253.064	13286.89
253.135	13263.37
253.205	13236.76
253.276	13314.94
253.347	13379.54
253.417	13360.06
253.488	13337.98
253.558	13330.22
253.629	13332.59
253.699	13338.85
253.77	13359.48
253.841	13356.64
253.911	13361.89
253.982	13377.37
254.052	13411.59
254.123	13416.08
254.193	13412.03
254.264	13544.88
254.334	13503.95
254.405	13469.58
254.475	13439.55
254.546	13447.17
254.616	13510.03
254.687	13542.57
254.757	13567.88
254.827	13566.96
254.898	13590.34
254.968	13602.68
255.039	13587.21
255.109	13621.96
255.18	13595.74
255.25	13522.32
255.321	13564.98
255.391	13524.59
255.461	13606.68
255.532	13520.63
255.602	13518.42
255.673	13471.8
255.743	13436.18
255.813	13372.45
255.884	13423.45
255.954	13461.44
256.024	13523
256.095	13531.29
256.165	13496.29
256.235	13518.56
256.306	13505.79
256.376	13556.74
256.446	13591.07
256.517	13621.77
256.587	13667.57
256.657	13688.25
256.728	13719.05
256.798	13723.97
256.868	13719.15
256.938	13694.18
257.009	13742.15
257.079	13768.9
257.149	13863.82
257.219	13803.99
257.29	13846.32
257.36	13797.58
257.43	13836.39
257.5	13778.88
257.571	13768.99
257.641	13807.99
257.711	13771.07
257.781	13803.56
257.852	13815.47
257.922	13753.38
257.992	13762.25
258.062	13754.58
258.132	13803.22
258.202	13810.31
258.273	13819.95
258.343	13903.78
258.413	13892.64
258.483	13897.85
258.553	13869.65
258.623	13852.29
258.693	13884.11
258.764	13950.25
258.834	14015.38
258.904	14039.72
258.974	14018.41
259.044	14023.57
259.114	14053.7
259.184	14087.11
259.254	14097.33
259.324	14049.79
259.394	14099.88
259.464	14175.9
259.535	14185.54
259.605	14173.97
259.675	14157.92
259.745	14189.49
259.815	14155.8
259.885	14150.5
259.955	14262.61
260.025	14257.41
260.095	14262.71
260.165	14293.42
260.235	14353.48
260.305	14337.13
260.375	14296.59
260.445	14393.73
260.515	14467.1
260.585	14518.63
260.655	14521.04
260.725	14567.7
260.795	14603.81
260.865	14679.2
260.934	14644.87
261.004	14670.04
261.074	14680.26
261.144	14738.73
261.214	14778.64
261.284	14785.83
261.354	14831.91
261.424	14786.56
261.494	14862.05
261.564	14872.17
261.634	14899.69
261.703	14834.96
261.773	14865.04
261.843	14896.08
261.913	14886.73
261.983	14821.6
262.053	14845.61
262.123	14843.68
262.192	14798.08
262.262	14838.14
262.332	14783.18
262.402	14821.46
262.472	14827.82
262.541	14770.46
262.611	14827.05
262.681	14803.76
262.751	14843.19
262.821	14850.86
262.89	14823.82
262.96	14839.24
263.03	14915.16
263.1	14930.3
263.169	14950.25
263.239	14978.6
263.309	15045.11
263.379	15072.2
263.448	15102.09
263.518	15116.94
263.588	15132.22
263.657	15201.78
263.727	15240.38
263.797	15261.93
263.867	15257.4
263.936	15226.16
264.006	15284.45
264.076	15275.67
264.145	15271.72
264.215	15251.19
264.285	15288.83
264.354	15252.97
264.424	15246.08
264.494	15191.46
264.563	15191.51
264.633	15276.3
264.702	15300.64
264.772	15246.61
264.842	15244.34
264.911	15274.76
264.981	15236.05
265.05	15251.48
265.12	15253.7
265.19	15270.23
265.259	15309.51
265.329	15346.43
265.398	15371.5
265.468	15462.55
265.537	15459.8
265.607	15500
265.676	15553.22
265.746	15574.91
265.815	15631.59
265.885	15640.61
265.955	15630.44
266.024	15627.45
266.094	15559.54
266.163	15618.53
266.232	15690.59
266.302	15701.24
266.371	15730.45
266.441	15750.55
266.51	15798.8
266.58	15801.11
266.649	15779.28
266.719	15837.26
266.788	15864.78
266.858	15939.39
266.927	15876.69
266.996	15904.88
267.066	15932.6
267.135	15899.05
267.205	15940.93
267.274	15956.55
267.343	16013.81
267.413	16033.33
267.482	16102.69
267.552	16165.11
267.621	16119.9
267.69	16066.69
267.76	16106.36
267.829	16130.46
267.898	16151.08
267.968	16130.89
268.037	16177.21
268.106	16235.81
268.176	16199.04
268.245	16200.87
268.314	16186.65
268.384	16251.48
268.453	16271.39
268.522	16300.31
268.592	16363.59
268.661	16347.54
268.73	16382.58
268.799	16377.57
268.869	16463.6
268.938	16410.83
269.007	16394.05
269.076	16419.6
269.146	16480.33
269.215	16500.09
269.284	16568.38
269.353	16568.04
269.422	16580.09
269.492	16571.61
269.561	16485.29
269.63	16518.93
269.699	16525.77
269.768	16549.82
269.838	16565.34
269.907	16602.31
269.976	16567.22
270.045	16508.47
270.114	16546.83
270.183	16550.49
270.253	16573.68
270.322	16515.5
270.391	16544.13
270.46	16617.87
270.529	16658.11
270.598	16694.6
270.667	16710.16
270.736	16681.59
270.806	16710.41
270.875	16777.5
270.944	16788
271.013	16910.95
271.082	16936.97
271.151	16971.87
271.22	16932.39
271.289	16944.97
271.358	16953.94
271.427	16990.18
271.496	17029.94
271.565	17030.76
271.634	17051.68
271.703	17179.29
271.772	17256.07
271.841	17272.02
271.91	17238.14
271.979	17257.42
272.048	17237.46
272.117	17279.2
272.186	17289.32
272.255	17349.08
272.324	17383.29
272.393	17424.02
272.462	17412.36
272.531	17436.26
272.6	17452.55
272.669	17529.37
272.738	17544.84
272.807	17576.17
272.876	17565.08
272.945	17712.16
273.013	17773.66
273.082	17839.58
273.151	17742.96
273.22	17766.48
273.289	17783.68
273.358	17879.39
273.427	17897.99
273.496	17957.94
273.564	18000.98
273.633	18053.36
273.702	18024.35
273.771	18038.86
273.84	18064.83
273.909	18110.8
273.977	18150.85
274.046	18163
274.115	18213.26
274.184	18211.23
274.253	18232.92
274.322	18315.04
274.39	18242.61
274.459	18235.04
274.528	18185.26
274.597	18211.29
274.665	18244.97
274.734	18325.88
274.803	18325.59
274.872	18346.08
274.94	18332.05
275.009	18563.99
275.078	18554.55
275.147	18601.29
275.215	18626.88
275.284	18693.87
275.353	18703.26
275.421	18668.23
275.49	18765.14
275.559	18778.68
275.627	18808.27
275.696	18826.97
275.765	18865.38
275.833	18895.25
275.902	18940.79
275.971	19032.55
276.039	19121.75
276.108	19184.68
276.177	19219.33
276.245	19236.87
276.314	19264.92
276.383	19333.25
276.451	19153.65
276.52	19216.05
276.588	19292.24
276.657	19352
276.725	19364.38
276.794	19407.8
276.863	19494.06
276.931	19457.68
277	19521
277.068	19584.56
277.137	19694.2
277.205	19736.12
277.274	19832.79
277.342	19912.07
277.411	19884.65
277.48	19895.97
277.548	19901.56
277.617	19947.15
277.685	19967.06
277.754	20028.26
277.822	20039.73
277.89	20129.08
277.959	20145.61
278.027	20132.07
278.096	20140.36
278.164	20275.94
278.233	20296.76
278.301	20301.53
278.37	20360.85
278.438	20354.25
278.507	20418.73
278.575	20366.25
278.643	20386.73
278.712	20371.45
278.78	20365.19
278.849	20459.5
278.917	20532.95
278.985	20558.73
279.054	20613.48
279.122	20698.06
279.191	20729.73
279.259	20761.72
279.327	20728.08
279.396	20830.98
279.464	20861.1
279.532	20923.08
279.601	20941.89
279.669	20972.44
279.737	21060.16
279.806	21117.03
279.874	21199.79
279.942	21226.15
280.011	21264.75
280.079	21338.5
280.147	21434.65
280.215	21495.43
280.284	21523.48
280.352	21516.73
280.42	21591.3
280.488	21595.83
280.557	21618.39
280.625	21680.47
280.693	21735.51
280.761	21794.32
280.83	21778.6
280.898	21868.25
280.966	21851.82
281.034	21793.2
281.102	21802.02
281.171	21826.02
281.239	21899.4
281.307	21920.13
281.375	21930.49
281.443	22060.8
281.512	22095.75
281.58	22164.07
281.648	22161.9
281.716	22193.72
281.784	22247.32
281.852	22269.69
281.92	22312.16
281.989	22379.85
282.057	22358.59
282.125	22539.29
282.193	22577.62
282.261	22626.6
282.329	22655.14
282.397	22723.16
282.465	22777.39
282.533	22868.79
282.601	22874
282.67	22831.33
282.738	22848.73
282.806	22926.25
282.874	22914.48
282.942	22964.25
283.01	22979.25
283.078	23034.26
283.146	23071.19
283.214	23147.14
283.282	23199.27
283.35	23288
283.418	23316.22
283.486	23386.99
283.554	23301.32
283.622	23339.94
283.69	23384.26
283.758	23412.47
283.826	23474.05
283.894	23549.76
283.962	23658.53
284.03	23754.5
284.098	23813.95
284.165	23849.35
284.233	23901.67
284.301	23932.1
284.369	23947.78
284.437	23969.1
284.505	24006.09
284.573	24103.08
284.641	24109.64
284.709	24176.7
284.777	24161.02
284.845	24235.75
284.912	24302.61
284.98	24361.02
285.048	24390.73
285.116	24456.29
285.184	24549.79
285.252	24591.61
285.319	24594.55
285.387	24605.17
285.455	24599.91
285.523	24678.4
285.591	24717.57
285.659	24770.98
285.726	24868.3
285.794	24868.54
285.862	24913.8
285.93	24957.89
285.997	24985.73
286.065	25007.01
286.133	25013.81
286.201	25048.02
286.269	25042.71
286.336	25050.57
286.404	25073.06
286.472	25148.97
286.539	25119.97
286.607	25101.2
286.675	25148.88
286.743	25215.28
286.81	25244.77
286.878	25340.04
286.946	25355.92
287.013	25403.15
287.081	25440.95
287.149	25439.3
287.216	25548.37
287.284	25572.31
287.352	25615.84
287.419	25652.09
287.487	25747.86
287.555	25813.95
287.622	25854.54
287.69	25914.93
287.758	26010.65
287.825	26038.41
287.893	26049.94
287.96	26124.41
288.028	26213.57
288.096	26263.69
288.163	26314.48
288.231	26319.75
288.298	26355.63
288.366	26444.04
288.433	26475.61
288.501	26494.59
288.569	26544.95
288.636	26574.21
288.704	26673.99
288.771	26748.4
288.839	26766.12
288.906	26789.4
288.974	26863.8
289.041	26898.56
289.109	26916.24
289.176	26986.73
289.244	27053.61
289.311	27141.82
289.379	27206.62
289.446	27261.12
289.514	27306.29
289.581	27358.08
289.649	27420.28
289.716	27456.71
289.783	27477.49
289.851	27583.56
289.918	27635.53
289.986	27707.96
290.053	27777.64
290.121	27811.37
290.188	27872.36
290.255	28013.42
290.323	28044.83
290.39	28078.62
290.458	28165.96
290.525	28256.62
290.592	28275.04
290.66	28326.26
290.727	28355.21
290.794	28460.25
290.862	28503.76
290.929	28565.68
290.996	28604.69
291.064	28678.69
291.131	28775.14
291.198	28864.74
291.266	28909.74
291.333	28952.08
291.4	29022.15
291.468	29115.55
291.535	29139.58
291.602	29189.24
291.669	29214.4
291.737	29285.27
291.804	29322.27
291.871	29417.88
291.938	29484.48
292.006	29617.74
292.073	29704.45
292.14	29783.78
292.207	29790.45
292.275	29838.24
292.342	29906.35
292.409	30046.97
292.476	30176.95
292.543	30195.19
292.611	30242.18
292.678	30347.86
292.745	30490.49
292.812	30567.01
292.879	30585.64
292.946	30646.88
293.014	30745.57
293.081	30814.98
293.148	30905.28
293.215	31014.73
293.282	31035.92
293.349	31114.98
293.416	31098.81
293.484	31189.09
293.551	31269.71
293.618	31375.95
293.685	31506.64
293.752	31540.57
293.819	31574.58
293.886	31578.06
293.953	31652.86
294.02	31720.41
294.087	31784.83
294.154	31805.56
294.221	31895.77
294.288	31954.36
294.356	32070.48
294.423	32132.83
294.49	32156.51
294.557	32236.83
294.624	32236.15
294.691	32357.92
294.758	32401.52
294.825	32470.06
294.892	32478.73
294.959	32518.94
295.026	32597.64
295.093	32630.98
295.16	32665.02
295.226	32706.07
295.293	32833.78
295.36	32889.3
295.427	32972.8
295.494	33068.21
295.561	33137.21
295.628	33247.01
295.695	33351.89
295.762	33419.66
295.829	33499.12
295.896	33611.22
295.963	33680.26
296.03	33769.28
296.096	33830.23
296.163	33933.79
296.23	34046.9
296.297	34156.49
296.364	34213.06
296.431	34270.09
296.498	34304.75
296.564	34456.97
296.631	34516.27
296.698	34521.26
296.765	34648.6
296.832	34674.98
296.899	34672.7
296.965	34799.34
297.032	34779.11
297.099	34885.22
297.166	34945.17
297.233	34976.8
297.299	35004.64
297.366	35074.25
297.433	35148.36
297.5	35226.38
297.566	35280.53
297.633	35315.41
297.7	35378.77
297.767	35432.56
297.833	35518.15
297.9	35575.92
297.967	35567.38
298.033	35665.44
298.1	35815.89
298.167	35832.39
298.234	35908.8
298.3	35993.66
298.367	36003.61
298.434	36087.08
298.5	36101.94
298.567	36152.8
298.634	36196.42
298.7	36298.23
298.767	36354.58
298.834	36434.62
298.9	36476.07
298.967	36490.1
299.033	36572.47
299.1	36670.09
299.167	36765.66
299.233	36795.66
299.3	36885.98
299.366	36998.38
299.433	37096.85
299.5	37052.57
299.566	37124.95
299.633	37222.58
299.699	37319.5
299.766	37365.81
299.832	37425.14
299.899	37502.06
299.965	37581.25
300.032	37622.32
300.099	37699.96
300.165	37759.01
300.232	37792.8
300.298	37842.43
300.365	37944.83
300.431	38002.82
300.498	38034.1
300.564	38101.65
300.631	38181.15
300.697	38278.09
300.763	38323.73
300.83	38356.52
300.896	38458.46
300.963	38530.48
301.029	38604.56
301.096	38656.64
301.162	38757.17
301.229	38812.74
301.295	38827.51
301.361	38895.9
301.428	38963.98
301.494	38959.61
301.561	39018.68
301.627	39093.39
301.693	39154.93
301.76	39208.95
301.826	39244.9
301.892	39317.29
301.959	39397.55
302.025	39438.89
302.092	39470.18
302.158	39550.24
302.224	39606.66
302.291	39621.28
302.357	39658.74
302.423	39672.2
302.49	39695.57
302.556	39765
302.622	39794.35
302.688	39885.02
302.755	39965.44
302.821	40032.05
302.887	40111.73
302.954	40159.59
303.02	40227.67
303.086	40294.19
303.152	40329.47
303.219	40358.14
303.285	40417.58
303.351	40477.84
303.417	40539.56
303.483	40559.73
303.55	40573.48
303.616	40611.88
303.682	40662.02
303.748	40692.1
303.815	40790.82
303.881	40856.38
303.947	40872.52
304.013	40933.75
304.079	40946.39
304.145	40924.18
304.212	40979.68
304.278	41003.73
304.344	41025.8
304.41	41028.76
304.476	41041.98
304.542	41075.52
304.608	41137.53
304.674	41132.33
304.741	41159.36
304.807	41215.27
304.873	41278.07
304.939	41383.55
305.005	41376.4
305.071	41415.29
305.137	41458.06
305.203	41407.89
305.269	41448.53
305.335	41531.72
305.401	41565.41
305.467	41596.27
305.533	41673.28
305.599	41735.99
305.666	41803.56
305.732	41851.49
305.798	41945.51
305.864	42065.42
305.93	42121.96
305.996	42166.54
306.062	42225.31
306.128	42249.19
306.194	42242.48
306.259	42280.11
306.325	42282.69
306.391	42367.53
306.457	42435.59
306.523	42495.1
306.589	42617.48
306.655	42644.18
306.721	42614.42
306.787	42625.41
306.853	42725.24
306.919	42710.94
306.985	42739.29
307.051	42764.87
307.117	42789.28
307.183	42794.53
307.248	42735.2
307.314	42791.85
307.38	42846.08
307.446	42903.9
307.512	42912.61
307.578	42966.87
307.644	42986.42
307.709	43032.19
307.775	43057.57
307.841	43085.2
307.907	43129.11
307.973	43110.14
308.039	43143.41
308.104	43216.85
308.17	43265.28
308.236	43253.07
308.302	43303.98
308.368	43289.44
308.433	43323.39
308.499	43344.5
308.565	43354.03
308.631	43418.27
308.696	43384.96
308.762	43383.21
308.828	43407.87
308.894	43399.85
308.959	43372.32
309.025	43387.98
309.091	43406.81
309.156	43421.35
309.222	43462.16
309.288	43454.33
309.354	43441.78
309.419	43477.83
309.485	43458.96
309.551	43492.62
309.616	43501.37
309.682	43534.55
309.748	43568.59
309.813	43594.62
309.879	43617.38
309.945	43634.84
310.01	43649.73
310.076	43700.75
310.141	43732.27
310.207	43720.4
310.273	43767.96
310.338	43824.19
310.404	43816.26
310.469	43814.9
310.535	43821.13
310.601	43793.45
310.666	43851.87
310.732	43921.87
310.797	43917.01
310.863	43927.12
310.928	43957.14
310.994	44001.08
311.059	44018.54
311.125	44051.04
311.191	44123.5
311.256	44121.31
311.322	44162.8
311.387	44133.18
311.453	45014.33
311.518	45044.25
311.584	45079.87
311.649	45133.14
311.715	45135.77
311.78	45185.63
311.846	45199.05
311.911	45257.1
311.976	45305.22
312.042	45287.94
312.107	45273.88
312.173	45283.18
312.238	45306.24
312.304	45326.43
312.369	45309.79
312.434	45319.67
312.5	45324.19
312.565	45247.11
312.631	45306.61
312.696	45321.84
312.761	45377.64
312.827	44533.28
312.892	44611.56
312.958	44633.02
313.023	44656.68
313.088	44701.29
313.154	44695.26
313.219	44696.48
313.284	44689.13
313.35	44699.74
313.415	44716.86
313.48	44729.51
313.546	44768.83
313.611	44820.46
313.676	44822.12
313.741	44844.65
313.807	44903.93
313.872	44951.23
313.937	45008.6
314.003	45078.65
314.068	45119.92
314.133	45153.21
314.198	45152.68
314.264	45112.07
314.329	45127.55
314.394	45149.94
314.459	45150.38
314.525	45247.33
314.59	45270.05
314.655	45264.94
314.72	45323.55
314.785	45354.79
314.851	45371.78
314.916	45345.98
314.981	45332.16
315.046	45331.96
315.111	45319.26
315.176	45310.5
315.242	45349.4
315.307	45385.37
315.372	45332.26
315.437	45336.15
315.502	45354.07
315.567	45422.36
315.632	45413.99
315.698	45446.95
315.763	45447.34
315.828	45472.46
315.893	45488.62
315.958	45509.11
316.023	45513.49
316.088	45465.25
316.153	45418.53
316.218	45415.18
316.283	45380.39
316.348	45342.63
316.413	45331.05
316.479	45305.31
316.544	45191.94
316.609	45079.66
316.674	44947.22
316.739	44840.43
316.804	44711.69
316.869	44576.28
316.934	44441.29
316.999	44315.38
317.064	44119.75
317.129	43962.99
317.194	43794
317.259	43587.02
317.324	43388.06
317.389	43216.23
317.454	43060.78
317.518	42913.44
317.583	42791.89
317.648	42673.82
317.713	42516.56
317.778	42292.35
317.843	42145.65
317.908	41979.41
317.973	41816.39
318.038	41684.6
318.103	41512.59
318.168	41364.37
318.233	41211.94
318.297	40995.7
318.362	40825.83
318.427	40638.31
318.492	40498.92
318.557	40303.88
318.622	40163.24
318.687	40031.19
318.751	39831.91
318.816	39662.23
318.881	39486.66
318.946	39246.5
319.011	39020.57
319.075	38819.82
319.14	38630.61
319.205	38410.88
319.27	38225
319.335	37998.28
319.399	37781.5
319.464	37616.8
319.529	37366
319.594	37157.85
319.658	36973.68
319.723	36759.41
319.788	36585.95
319.853	36311.9
319.917	36126.16
319.982	35860.69
320.047	35633.94
320.112	35455.61
320.176	35192.56
320.241	34977.66
320.306	34777.86
320.37	34558.47
320.435	34370.63
320.5	34188.89
320.564	33969.36
320.629	33743
320.694	33546.84
320.758	33309.3
320.823	33063.83
320.888	32876.37
320.952	32618.52
321.017	32378.04
321.082	32141.95
321.146	31938.63
321.211	31737.42
321.275	31487.99
321.34	31238.17
321.405	30996.53
321.469	30749.48
321.534	30512.4
321.598	30250.19
321.663	30040.71
321.727	29821.32
321.792	29556.79
321.857	29310.37
321.921	29078.74
321.986	28830.42
322.05	28534.27
322.115	28321.77
322.179	28071.88
322.244	27773.43
322.308	27555.09
322.373	27306.35
322.437	27066.18
322.502	26862.05
322.566	26604.42
322.631	26392.35
322.695	26159.38
322.76	25911.26
322.824	25688.77
322.889	25443.29
322.953	25184.03
323.018	24856.83
323.082	24551.93
323.146	24259.75
323.211	23973.82
323.275	23713.97
323.34	23457.51
323.404	23234.74
323.468	22963.51
323.533	22706.7
323.597	22450.24
323.662	22166.89
323.726	21935.91
323.79	21659.44
323.855	21321.78
323.919	21045.53
323.983	20777.08
324.048	20382.05
324.112	20432.16
324.177	19615.48
324.241	18539.75
324.305	17488.55
324.37	16455.05
324.434	15446.85
324.498	15167.39
324.562	14847.32
324.627	14487.75
324.691	14133.04
324.755	13730.12
324.82	13268.97
324.884	12786.39
324.948	12299.94
325.012	11707.45
325.077	10969.52
