Data from 20250701_urea_2M_exp3_MAYP1162681_07-09-52-399.txt Node
Date: Wed Jul 02 07:09:52 BST 2025
User: adleo
Spectrometer: MAYP116268
Trigger mode: 0
Integration Time (sec): 4.000000E0
Scans to average: 1
Electric dark correction enabled: true
Nonlinearity correction enabled: true
Boxcar width: 10
XAxis mode: Wavelengths
Number of Pixels in Spectrum: 2068
>>>>>Begin Spectral Data<<<<<
179.565	3753.32
179.642	3951.91
179.718	4108.4
179.795	4238.22
179.871	4348.99
179.948	4409.34
180.024	4480.78
180.101	4563.74
180.177	4617.57
180.254	4696.69
180.33	4776
180.407	5047.37
180.483	5339.02
180.56	5637.58
180.636	5909.24
180.712	5863.59
180.789	5898.37
180.865	5938.55
180.942	5970.78
181.018	6009.45
181.095	6059.28
181.171	6076.99
181.248	6075.31
181.324	6125.67
181.4	6152.26
181.477	6187.06
181.553	6236.46
181.63	6307.74
181.706	6362.86
181.782	6388.24
181.859	6391.31
181.935	6408.55
182.011	6397.31
182.088	6454.6
182.164	6519.84
182.24	6568.36
182.317	6603.58
182.393	6595.86
182.469	6646.13
182.546	6692.9
182.622	6708.41
182.698	6689.1
182.775	6731.55
182.851	6781.06
182.927	6758.15
183.003	6743.13
183.08	6728.24
183.156	6758.35
183.232	6748.84
183.308	6708.88
183.385	6740.38
183.461	6795.95
183.537	6803.45
183.613	6846.87
183.69	6817.9
183.766	6784.06
183.842	6806.4
183.918	6822.21
183.995	6868.5
184.071	6879.56
184.147	6856.69
184.223	6818.1
184.299	6866.73
184.375	6830.56
184.452	6854.35
184.528	6981.02
184.604	7020.11
184.68	7055.89
184.756	7081.99
184.832	7100.15
184.908	7118.73
184.985	7110.76
185.061	7055.33
185.137	7082.38
185.213	7034.21
185.289	7037.71
185.365	7008.42
185.441	7003.57
185.517	7049.42
185.593	7036.21
185.669	7024.63
185.745	7059.65
185.822	7114.53
185.898	7079.21
185.974	7109.42
186.05	7079.62
186.126	7002.82
186.202	6979.77
186.278	6969.87
186.354	6938.39
186.43	6960.32
186.506	6950.04
186.582	6953.69
186.658	6977.55
186.734	6907.53
186.81	6927.17
186.886	6935.33
186.962	6977.36
187.038	6959.68
187.114	6934.97
187.19	6958.27
187.266	6927.54
187.341	6936.52
187.417	6914.81
187.493	6916.45
187.569	6924.61
187.645	6910.68
187.721	6869.16
187.797	6888.81
187.873	6905.38
187.949	6883.39
188.025	6859.16
188.101	6870.11
188.176	6888.99
188.252	6876.02
188.328	6901.99
188.404	6893.39
188.48	6874.66
188.556	6851.31
188.632	6856.65
188.707	6858.28
188.783	6849.68
188.859	6836.77
188.935	6793.04
189.011	6816.14
189.086	6792.32
189.162	6764.51
189.238	6754.19
189.314	6745.64
189.39	6732.96
189.465	6709.27
189.541	6763.18
189.617	6713.18
189.693	6692.1
189.768	6702
189.844	6786.74
189.92	6761.88
189.996	6796.47
190.071	6836.67
190.147	6833.41
190.223	6862.19
190.298	6837.06
190.374	6791.05
190.45	6829.12
190.526	6860.3
190.601	6841.57
190.677	6844.88
190.753	6939.4
190.828	6950.54
190.904	7005.42
190.98	7057.6
191.055	7095.61
191.131	7068.17
191.207	7139.13
191.282	7181.05
191.358	7144.35
191.433	7095.3
191.509	7141.15
191.585	7131.35
191.66	7132.36
191.736	7162.05
191.811	7134.13
191.887	7193.41
191.963	7279.37
192.038	7296.48
192.114	7295.52
192.189	7307.53
192.265	7302.39
192.34	7227.08
192.416	7226.75
192.491	7212.13
192.567	7217.37
192.642	7223.14
192.718	7224.39
192.793	7184.31
192.869	7165.43
192.944	7179.21
193.02	7201.71
193.095	7212.52
193.171	7226.41
193.246	7226.55
193.322	7215.21
193.397	7214.11
193.473	7165.31
193.548	7102.19
193.624	7120.7
193.699	7119.26
193.775	7173.83
193.85	7177.38
193.925	7205.25
194.001	7202.66
194.076	7178.15
194.152	7145.32
194.227	7118.88
194.302	7081
194.378	7091.95
194.453	7079.03
194.529	7119.4
194.604	7065.92
194.679	7040.36
194.755	6982.73
194.83	7025.24
194.905	7019.96
194.981	7052.73
195.056	7028.95
195.131	7052.2
195.207	7046.19
195.282	7008.53
195.357	6943.79
195.433	6993.03
195.508	6957.18
195.583	6983.89
195.659	7031.96
195.734	7052.92
195.809	7051.33
195.884	7087.92
195.96	7087.68
196.035	7142.26
196.11	7126.78
196.185	7166.32
196.261	7187.75
196.336	7292.55
196.411	7243.36
196.486	7259.6
196.561	7236.1
196.637	7261.85
196.712	7315.28
196.787	7327.1
196.862	7382.84
196.937	7420.13
197.013	7442.1
197.088	7472.23
197.163	7541.69
197.238	7601.89
197.313	7606.5
197.388	7648.18
197.464	7753.38
197.539	7794.34
197.614	7769.53
197.689	7811.61
197.764	7872.22
197.839	7940.84
197.914	7921.17
197.989	7996.05
198.065	8039.81
198.14	8215.44
198.215	8306.93
198.29	8344.23
198.365	8384.35
198.44	8421.68
198.515	8513.97
198.59	8568.78
198.665	8660.54
198.74	8690.92
198.815	8689.48
198.89	8760.16
198.965	8870.31
199.04	8856.59
199.115	8911.3
199.19	9062.08
199.265	9070.06
199.34	9100.49
199.415	9209.86
199.49	9279.16
199.565	9307.08
199.64	9389.21
199.715	9376.97
199.79	9399.51
199.865	9427.87
199.94	9424.5
200.015	9529.24
200.09	9543.16
200.165	9560.11
200.24	9581.15
200.315	9711.73
200.39	9760.42
200.464	9777.23
200.539	9779.1
200.614	9831.83
200.689	9908.47
200.764	9925.28
200.839	9989.5
200.914	10006.55
200.989	9969.45
201.063	10016.94
201.138	9960.01
201.213	9960.97
201.288	9888.15
201.363	9903.8
201.438	9898.55
201.512	9954.93
201.587	9899.06
201.662	9918.03
201.737	9957.05
201.812	9983.64
201.886	9868.04
201.961	9905.72
202.036	9870.19
202.111	9858.34
202.186	9758.17
202.26	9692.56
202.335	9623.63
202.41	9596.52
202.485	9540.43
202.559	9475.04
202.634	9385.29
202.709	9422.1
202.784	9359.65
202.858	9361.91
202.933	9295.28
203.008	9269.76
203.082	9201.88
203.157	9196.39
203.232	9047.36
203.306	8977.33
203.381	8873
203.456	8800.12
203.53	8714.52
203.605	8650.44
203.68	8571.92
203.754	8549.51
203.829	8502
203.904	8429.25
203.978	8392.91
204.053	8407.2
204.127	8360.49
204.202	8358.61
204.277	8291.94
204.351	8271.92
204.426	8246.84
204.5	8220.14
204.575	8103.77
204.65	8139.24
204.724	8112.18
204.799	8136.17
204.873	8117.54
204.948	8107.15
205.022	8065.03
205.097	8044.23
205.171	8090.12
205.246	8115.96
205.32	8111.68
205.395	8106.49
205.469	8077.02
205.544	8093.29
205.618	8028.01
205.693	8071.12
205.767	8023.5
205.842	8101.49
205.916	8077.73
205.991	8048.15
206.065	8068.74
206.14	8118.67
206.214	8096.52
206.289	8071.98
206.363	8114.12
206.438	8128.79
206.512	8155.74
206.586	8218.26
206.661	8244.4
206.735	8167.09
206.81	8165.4
206.884	8215.03
206.958	8175.7
207.033	8231.13
207.107	8258.14
207.181	8372.48
207.256	8348.76
207.33	8421.69
207.405	8459.49
207.479	8521.71
207.553	8543.11
207.628	8488.73
207.702	8528.12
207.776	8510.9
207.851	8519.41
207.925	8573.57
207.999	8558.46
208.073	8552.16
208.148	8559.71
208.222	8515.19
208.296	8625.47
208.371	8684.36
208.445	8724.8
208.519	8818.91
208.593	8859.53
208.668	8842.48
208.742	8845.81
208.816	8852.4
208.89	8892.94
208.965	8893.57
209.039	8919.38
209.113	8977.67
209.187	9049.81
209.261	9035.81
209.336	9105.13
209.41	9173.74
209.484	9166.27
209.558	9241.34
209.632	9284.56
209.707	9324.33
209.781	9402.47
209.855	9451.88
209.929	9507.15
210.003	9520.87
210.077	9521.4
210.151	9691.78
210.226	9811.78
210.3	9909.74
210.374	9993.56
210.448	10008.78
210.522	10041.45
210.596	10083.6
210.67	10114.81
210.744	10275.66
210.818	10388.48
210.892	10453.28
210.966	10437.25
211.041	10498.13
211.115	10487.59
211.189	10565
211.263	10614.76
211.337	10635.67
211.411	10688.05
211.485	10673.11
211.559	10713.13
211.633	10720.45
211.707	10604.02
211.781	10630.72
211.855	10501.26
211.929	10468.22
212.003	10398.5
212.077	10427.17
212.151	10457.33
212.225	10489.37
212.299	10446.77
212.373	10400.9
212.447	10383.99
212.52	10477.36
212.594	10484.35
212.668	10519.32
212.742	10470.52
212.816	10454.52
212.89	10431.06
212.964	10418.39
213.038	10421.42
213.112	10465.85
213.186	10509.78
213.26	10434.09
213.333	10269.29
213.407	10283.45
213.481	10282.72
213.555	10322.73
213.629	10273.97
213.703	10217.06
213.777	10207.23
213.85	10126.78
213.924	10239.39
213.998	10233.89
214.072	10198.96
214.146	10141.63
214.219	10125.68
214.293	10099.82
214.367	10094.04
214.441	10118.27
214.515	10067.73
214.588	9972.59
214.662	9833.4
214.736	9743.78
214.81	9756.2
214.883	9772.18
214.957	9725.82
215.031	9676.53
215.105	9580.54
215.178	9519.66
215.252	9471.51
215.326	9362.06
215.4	9278.61
215.473	9083.94
215.547	8993.25
215.621	8923.6
215.694	8918.49
215.768	8816.96
215.842	8748.28
215.915	8675.81
215.989	8553.05
216.063	8487.52
216.136	8465.52
216.21	8444.5
216.284	8456.68
216.357	8429.15
216.431	8383.82
216.504	8375.64
216.578	8427
216.652	8437.19
216.725	8412.89
216.799	8421.36
216.873	8401.69
216.946	8417.08
217.02	8383.13
217.093	8347.34
217.167	8253.09
217.24	8173.82
217.314	8131.7
217.387	8088.87
217.461	8039.66
217.535	8066.98
217.608	8005.67
217.682	7976.65
217.755	7991.33
217.829	7936.53
217.902	7919.07
217.976	7903.73
218.049	7854.77
218.123	7777.14
218.196	7775.99
218.27	7737.99
218.343	7665.05
218.417	7667.41
218.49	7636.49
218.563	7676.4
218.637	7686.36
218.71	7756.63
218.784	7781.64
218.857	7819.05
218.931	7845.1
219.004	7856.59
219.077	7872.95
219.151	7893.1
219.224	7884.29
219.298	7880.11
219.371	7926.24
219.444	7884.04
219.518	7887.98
219.591	7903.12
219.665	8009.4
219.738	8026.33
219.811	8005.37
219.885	8054.43
219.958	8080.51
220.031	8086.9
220.105	8111.78
220.178	8118.27
220.251	8087.62
220.325	8110.96
220.398	8136.17
220.471	8153
220.544	8188.27
220.618	8159.01
220.691	8186.14
220.764	8204.41
220.838	8229.48
220.911	8211.2
220.984	8302.96
221.057	8348.09
221.131	8374.83
221.204	8275.82
221.277	8343.01
221.35	8467
221.424	8460.17
221.497	8476.63
221.57	8496.87
221.643	8533.32
221.716	8579.62
221.79	8589.1
221.863	8597.14
221.936	8596.94
222.009	8610.08
222.082	8639.49
222.155	8653.2
222.229	8721.46
222.302	8750.48
222.375	8760.2
222.448	8808.14
222.521	8817.96
222.594	8815.55
222.667	8788.33
222.74	8843.04
222.814	8835.53
222.887	8820.6
222.96	8870.28
223.033	8908.46
223.106	8938.39
223.179	8964.25
223.252	8980.19
223.325	9014.74
223.398	9029.53
223.471	9057.63
223.544	9087.62
223.617	9096.72
223.69	9120.93
223.763	9087.65
223.837	9113.41
223.91	9138.11
223.983	9085.21
224.056	9044.59
224.129	9065.43
224.202	9126.15
224.275	9120.04
224.348	9101.07
224.42	9066.98
224.493	9009.7
224.566	8987.99
224.639	9012.78
224.712	8987.93
224.785	8975.31
224.858	8961.93
224.931	8941.27
225.004	8906.76
225.077	8896.94
225.15	8807.69
225.223	8804.27
225.296	8881.33
225.369	8818.62
225.442	8783.43
225.514	8804.75
225.587	8828.81
225.66	8840.75
225.733	8837.86
225.806	8847.3
225.879	8827.76
225.952	8797.59
226.025	8844.37
226.097	8890.03
226.17	8875.83
226.243	8810.61
226.316	8804.21
226.389	8813.21
226.461	8837.43
226.534	8858.46
226.607	8855.67
226.68	8944.64
226.753	8947.67
226.825	8860.35
226.898	8921.62
226.971	8926.09
227.044	8941.88
227.117	8949.53
227.189	8965.52
227.262	9004.33
227.335	9030.09
227.407	9027.06
227.48	9052.56
227.553	9068.79
227.626	9055.79
227.698	9063.83
227.771	9098.66
227.844	9077.09
227.916	9089.61
227.989	9052.78
228.062	9049.75
228.134	9139.03
228.207	9135.85
228.28	9128.25
228.352	9148.76
228.425	9154.68
228.498	9200.03
228.57	9181.26
228.643	9236.79
228.716	9234.67
228.788	9219.26
228.861	9204.76
228.934	9271.54
229.006	9288.43
229.079	9286.12
229.151	9269.46
229.224	9237.89
229.296	9267.3
229.369	9367.72
229.442	9419.74
229.514	9401.84
229.587	9446.28
229.659	9362.05
229.732	9375.53
229.804	9409.91
229.877	9489.44
229.949	9522.62
230.022	9578.94
230.094	9585.1
230.167	9572.72
230.239	9526.17
230.312	9514.99
230.384	9584.6
230.457	9578.2
230.529	9590.91
230.602	9597.5
230.674	9606.75
230.747	9650.99
230.819	9675.88
230.892	9559.44
230.964	9559.49
231.037	9594.38
231.109	9582.05
231.181	9621.67
231.254	9586.43
231.326	9574.97
231.399	9549.09
231.471	9521.78
231.544	9440.33
231.616	9486.93
231.688	9493.53
231.761	9489.39
231.833	9475.91
231.905	9395.81
231.978	9397.35
232.05	9378.24
232.122	9377.61
232.195	9357.1
232.267	9391.15
232.339	9374.87
232.412	9442.08
232.484	9416.55
232.556	9387.19
232.629	9461.81
232.701	9491.67
232.773	9507.32
232.846	9493.98
232.918	9498.46
232.99	9515.08
233.062	9554.95
233.135	9562.42
233.207	9530.34
233.279	9570.54
233.351	9608.82
233.424	9609.93
233.496	9592.97
233.568	9680.39
233.64	9643.41
233.713	9658.92
233.785	9656.75
233.857	9675.1
233.929	9625.22
234.001	9699.56
234.074	9764.7
234.146	9690.03
234.218	9681.41
234.29	9684.44
234.362	9676.5
234.434	9632.86
234.507	9598.47
234.579	9553.16
234.651	9539.86
234.723	9566.74
234.795	9589.42
234.867	9584.65
234.939	9644.71
235.012	9657.43
235.084	9665.33
235.156	9709.48
235.228	9693.45
235.3	9676.16
235.372	9687.43
235.444	9748.34
235.516	9657.05
235.588	9665.38
235.66	9680.74
235.732	9653.1
235.804	9846.43
235.876	9892.61
235.948	9954.56
236.02	9972.18
236.092	9987.73
236.164	9998.47
236.236	10001.6
236.308	10002.13
236.38	10030.79
236.452	10013.55
236.524	10034.16
236.596	10087.37
236.668	10120.46
236.74	10141.7
236.812	10175.71
236.884	10205.63
236.956	10215.7
237.028	10212.28
237.1	10198.12
237.172	10273.47
237.244	10353.3
237.316	10241.66
237.388	10220.91
237.46	10197.73
237.532	10257.85
237.604	10248.66
237.675	10321.02
237.747	10369.78
237.819	10357.84
237.891	10359.48
237.963	10346.52
238.035	10342.28
238.107	10230.2
238.178	10288.99
238.25	10306.09
238.322	10394.67
238.394	10352.61
238.466	10357.77
238.538	10405.98
238.609	10449.48
238.681	10394.94
238.753	10369.78
238.825	10392.82
238.897	10431.98
238.968	10514.87
239.04	10500.99
239.112	10615.17
239.184	10571.32
239.255	10567.08
239.327	10598.97
239.399	10628.21
239.471	10674.61
239.542	10710.16
239.614	10784.93
239.686	10706.53
239.758	10753.27
239.829	10718.52
239.901	10778.94
239.973	10793.1
240.044	10822.88
240.116	10833.72
240.188	10846.68
240.259	10864.99
240.331	10852.9
240.403	10883.92
240.474	10835.68
240.546	10823.01
240.618	10763.78
240.689	10763.74
240.761	10782.82
240.833	10853.56
240.904	10850.14
240.976	10851.78
241.048	10874.67
241.119	10911.4
241.191	10958.23
241.262	11032.36
241.334	11033.85
241.405	11041.9
241.477	11046.77
241.549	11060.55
241.62	11082.19
241.692	11133.17
241.763	11196.6
241.835	11220.99
241.906	11248.36
241.978	11223.35
242.049	11299.35
242.121	11364.93
242.192	11439.68
242.264	11412.07
242.335	11368.55
242.407	11413.03
242.478	11422.52
242.55	11443.82
242.621	11428.79
242.693	11429.27
242.764	11410.61
242.836	11414.03
242.907	11441.03
242.979	11469.46
243.05	11488.35
243.122	11524.16
243.193	11523.39
243.264	11452.73
243.336	11452.88
243.407	11487.73
243.479	11571.97
243.55	11584.07
243.622	11592.99
243.693	11593.66
243.764	11662.15
243.836	11631.84
243.907	11623.12
243.978	11630.25
244.05	11648.76
244.121	11601.24
244.192	11642.45
244.264	11602.93
244.335	11618.83
244.407	11575.7
244.478	11596.61
244.549	11593.38
244.62	11547.6
244.692	11547.07
244.763	11591.12
244.834	11580.13
244.906	11553.95
244.977	11570.44
245.048	11624.19
245.119	11606.79
245.191	11586.55
245.262	11523.12
245.333	11608.8
245.405	11625.67
245.476	11659.75
245.547	11675.22
245.618	11733.49
245.689	11750.02
245.761	11783.47
245.832	11792.19
245.903	11835.57
245.974	11867.53
246.045	11878.42
246.117	11962.14
246.188	11944.84
246.259	11926.05
246.33	11940.89
246.401	11952.36
246.473	11916.06
246.544	11900.3
246.615	11958
246.686	11962.34
246.757	12035.79
246.828	12007.45
246.899	12086.46
246.97	12052
247.042	12045.54
247.113	12089.06
247.184	12176.85
247.255	12177.86
247.326	12201.91
247.397	12211.55
247.468	12219.02
247.539	12233.44
247.61	12184.94
247.681	12233.29
247.752	12293.54
247.823	12277.1
247.894	12296.86
247.965	12274.55
248.037	12262.93
248.108	12207.69
248.179	12218.34
248.25	12208.8
248.321	12245.53
248.392	12197.08
248.463	12278.44
248.534	12280.47
248.605	12307.46
248.675	12280.95
248.746	12296.95
248.817	12315.99
248.888	12337.44
248.959	12282.21
249.03	12307.99
249.101	12324.48
249.172	12307.13
249.243	12226.68
249.314	12296.63
249.385	12303.81
249.456	12328.44
249.527	12329.79
249.598	12358.32
249.669	12350.85
249.739	12363.77
249.81	12375.87
249.881	12331.91
249.952	12334.27
250.023	12332.25
250.094	12274.16
250.165	12239.55
250.235	12232.89
250.306	12238.87
250.377	12205.52
250.448	12235.25
250.519	12175.24
250.59	12241.82
250.66	12244.51
250.731	12327.13
250.802	12321.05
250.873	12340.53
250.944	12366.41
251.014	12346.89
251.085	12440.7
251.156	12480.56
251.227	12536.38
251.297	12592.3
251.368	12646.63
251.439	12683.02
251.51	12734.31
251.58	12729.2
251.651	12726.79
251.722	12784.4
251.792	12732.53
251.863	12739.13
251.934	12804.21
252.005	12922.21
252.075	12914.4
252.146	12963.91
252.217	13013.08
252.287	13059.12
252.358	13069.67
252.429	13146.37
252.499	13151.43
252.57	13160.98
252.641	13205.13
252.711	13215.59
252.782	13171.77
252.852	13253.72
252.923	13253.39
252.994	13275.42
253.064	13319.52
253.135	13303.57
253.205	13279.32
253.276	13355.58
253.347	13426.73
253.417	13406.92
253.488	13377.32
253.558	13369.7
253.629	13370.52
253.699	13380.02
253.77	13401.91
253.841	13393.52
253.911	13403.88
253.982	13414.82
254.052	13446.93
254.123	13449.72
254.193	13456.81
254.264	13587.88
254.334	13551
254.405	13516.73
254.475	13484.29
254.546	13484.43
254.616	13548.93
254.687	13586.14
254.757	13606.49
254.827	13599.64
254.898	13620.85
254.968	13633.29
255.039	13613.82
255.109	13647.9
255.18	13616.32
255.25	13544.16
255.321	13572.84
255.391	13529.7
255.461	13623.55
255.532	13537.84
255.602	13534.42
255.673	13472.23
255.743	13438.64
255.813	13362.67
255.884	13413.09
255.954	13439.07
256.024	13514.27
256.095	13524.01
256.165	13484.34
256.235	13513.79
256.306	13499.86
256.376	13548.6
256.446	13591.07
256.517	13630.06
256.587	13672.49
256.657	13701.6
256.728	13731.39
256.798	13744.51
256.868	13741.52
256.938	13706.18
257.009	13753.67
257.079	13788.66
257.149	13886.28
257.219	13823.32
257.29	13863.09
257.36	13802.55
257.43	13850.22
257.5	13781.77
257.571	13765.67
257.641	13807.95
257.711	13764.66
257.781	13801.78
257.852	13820.38
257.922	13753.47
257.992	13754.44
258.062	13748.7
258.132	13784.52
258.202	13786.59
258.273	13806.59
258.343	13884.11
258.413	13867.72
258.483	13871.05
258.553	13842.07
258.623	13819.08
258.693	13853.64
258.764	13923.59
258.834	13994.02
258.904	14002.65
258.974	13991.56
259.044	14000.96
259.114	14026.41
259.184	14061.94
259.254	14074.57
259.324	14014.56
259.394	14071.05
259.464	14158.21
259.535	14170.74
259.605	14171.85
259.675	14162.35
259.745	14197.21
259.815	14180.38
259.885	14185.83
259.955	14306.67
260.025	14293.27
260.095	14314.33
260.165	14349.96
260.235	14411.71
260.305	14401.2
260.375	14373.43
260.445	14463.77
260.515	14533.33
260.585	14580.62
260.655	14586.11
260.725	14629.01
260.795	14666.9
260.865	14730.39
260.934	14689.75
261.004	14715.35
261.074	14718.14
261.144	14783.17
261.214	14814.07
261.284	14805.49
261.354	14845.02
261.424	14791.23
261.494	14871.25
261.564	14873.81
261.634	14892.08
261.703	14823.63
261.773	14843.54
261.843	14875.93
261.913	14870.73
261.983	14811.24
262.053	14834.86
262.123	14830.57
262.192	14785.74
262.262	14829.85
262.332	14785.79
262.402	14827.24
262.472	14838.33
262.541	14782.22
262.611	14833.7
262.681	14812.73
262.751	14851.44
262.821	14855.34
262.89	14824.64
262.96	14840.45
263.03	14917.38
263.1	14942.1
263.169	14964.62
263.239	15002.22
263.309	15082.18
263.379	15113.61
263.448	15133.57
263.518	15159.5
263.588	15179.26
263.657	15253.35
263.727	15293.55
263.797	15305.21
263.867	15305.55
263.936	15262.26
264.006	15323.24
264.076	15310.37
264.145	15308.64
264.215	15303.48
264.285	15342.48
264.354	15300.25
264.424	15294.85
264.494	15234.22
264.563	15222.74
264.633	15309.17
264.702	15332.74
264.772	15270.22
264.842	15262.61
264.911	15299.44
264.981	15256.15
265.05	15268.78
265.12	15262.71
265.19	15271.34
265.259	15319.2
265.329	15349.13
265.398	15383.55
265.468	15479.71
265.537	15473.78
265.607	15501.69
265.676	15542.52
265.746	15573.94
265.815	15637.14
265.885	15636.94
265.955	15631.88
266.024	15639.5
266.094	15575.35
266.163	15644.56
266.232	15708.23
266.302	15731.17
266.371	15756.77
266.441	15769.49
266.51	15820.58
266.58	15824.34
266.649	15810.37
266.719	15854.47
266.788	15883.19
266.858	15960.6
266.927	15888.69
266.996	15917.9
267.066	15954.14
267.135	15919.87
267.205	15955.54
267.274	15970.91
267.343	16031.84
267.413	16045.91
267.482	16100.04
267.552	16158.41
267.621	16104.04
267.69	16060.71
267.76	16076.76
267.829	16100.33
267.898	16127.76
267.968	16111.37
268.037	16153.69
268.106	16204.58
268.176	16170.41
268.245	16179.33
268.314	16170.27
268.384	16233.75
268.453	16257.07
268.522	16283.1
268.592	16350.53
268.661	16346
268.73	16382.2
268.799	16370.82
268.869	16460.28
268.938	16416.56
269.007	16414.68
269.076	16443.41
269.146	16496.96
269.215	16527.85
269.284	16605.3
269.353	16604.48
269.422	16611.57
269.492	16606.99
269.561	16522.21
269.63	16563.8
269.699	16559.41
269.768	16576.81
269.838	16603.56
269.907	16653.4
269.976	16622.84
270.045	16573.53
270.114	16606.21
270.183	16610.79
270.253	16631.94
270.322	16587.7
270.391	16608.81
270.46	16669.59
270.529	16717.35
270.598	16758.55
270.667	16776.14
270.736	16746.12
270.806	16781.64
270.875	16842.61
270.944	16857.93
271.013	16993.02
271.082	17024.16
271.151	17062.33
271.22	17018.03
271.289	17023.96
271.358	17022.71
271.427	17057.89
271.496	17087.78
271.565	17084.88
271.634	17111.49
271.703	17253.56
271.772	17315.58
271.841	17341.27
271.91	17316.6
271.979	17326.28
272.048	17297.37
272.117	17335.1
272.186	17334.86
272.255	17384.21
272.324	17418.86
272.393	17452.79
272.462	17444.4
272.531	17460.21
272.6	17474.52
272.669	17559.49
272.738	17572.21
272.807	17602
272.876	17589.8
272.945	17727.68
273.013	17787.63
273.082	17848.16
273.151	17749.71
273.22	17781.47
273.289	17801.66
273.358	17881.13
273.427	17900.31
273.496	17963.82
273.564	18013.65
273.633	18065.31
273.702	18053.07
273.771	18070.81
273.84	18100.98
273.909	18140.44
273.977	18178.22
274.046	18187.81
274.115	18242.22
274.184	18242.41
274.253	18270.08
274.322	18346.8
274.39	18284.54
274.459	18278.85
274.528	18229.89
274.597	18252.97
274.665	18280.15
274.734	18352.24
274.803	18358.36
274.872	18376.53
274.94	18369.26
275.009	18590.4
275.078	18592.76
275.147	18632.95
275.215	18657.91
275.284	18726.87
275.353	18729.47
275.421	18701.33
275.49	18796.51
275.559	18803.64
275.627	18832.75
275.696	18857.71
275.765	18907.3
275.833	18933.61
275.902	18979.44
275.971	19065.65
276.039	19155.43
276.108	19208.2
276.177	19251.18
276.245	19254.8
276.314	19286.5
276.383	19344.86
276.451	19161.36
276.52	19220.82
276.588	19305.78
276.657	19374.21
276.725	19377.68
276.794	19429.58
276.863	19511.6
276.931	19472.28
277	19535.89
277.068	19608.13
277.137	19701.38
277.205	19732.9
277.274	19834
277.342	19905.95
277.411	19883.44
277.48	19887.88
277.548	19898.34
277.617	19930.38
277.685	19967.3
277.754	20027.29
277.822	20045.56
277.89	20149.37
277.959	20165.08
278.027	20139.06
278.096	20137.66
278.164	20274.06
278.233	20289.14
278.301	20298.34
278.37	20369.62
278.438	20372.42
278.507	20414.73
278.575	20369.28
278.643	20388.61
278.712	20363.11
278.78	20364.32
278.849	20450.48
278.917	20537.77
278.985	20571.45
279.054	20628.08
279.122	20709.05
279.191	20737.53
279.259	20770.11
279.327	20735.6
279.396	20821.68
279.464	20848.47
279.532	20920.53
279.601	20945.02
279.669	20978.99
279.737	21059.43
279.806	21118.57
279.874	21191.21
279.942	21229.81
280.011	21269.19
280.079	21343.61
280.147	21451.13
280.215	21501.41
280.284	21525.17
280.352	21510.22
280.42	21582.23
280.488	21595.78
280.557	21608.41
280.625	21670.93
280.693	21719.07
280.761	21780.48
280.83	21773.54
280.898	21858.23
280.966	21833.16
281.034	21767.84
281.102	21763.51
281.171	21793.92
281.239	21857.76
281.307	21866.58
281.375	21878.87
281.443	22005.22
281.512	22039.69
281.58	22102.95
281.648	22100.68
281.716	22143.05
281.784	22198.15
281.852	22210.06
281.92	22256.97
281.989	22335.55
282.057	22326.87
282.125	22512.98
282.193	22543.3
282.261	22594.11
282.329	22628.92
282.397	22686.52
282.465	22740.51
282.533	22846.37
282.601	22850.23
282.67	22814.89
282.738	22847.96
282.806	22934.45
282.874	22933.15
282.942	22984.22
283.01	23009.44
283.078	23081.13
283.146	23125.05
283.214	23188.56
283.282	23244.59
283.35	23321.32
283.418	23344.23
283.486	23396.92
283.554	23303.96
283.622	23345.24
283.69	23376.87
283.758	23399.05
283.826	23467.38
283.894	23549.7
283.962	23649.5
284.03	23752.22
284.098	23805.17
284.165	23827.06
284.233	23867.91
284.301	23887.3
284.369	23914.55
284.437	23937.17
284.505	23956.13
284.573	24045.74
284.641	24056.54
284.709	24119.88
284.777	24103.58
284.845	24172.13
284.912	24245.3
284.98	24303.57
285.048	24338.54
285.116	24414.9
285.184	24506.7
285.252	24554.12
285.319	24545.25
285.387	24557.7
285.455	24545.49
285.523	24617.47
285.591	24662.66
285.659	24710.04
285.726	24804.17
285.794	24793.37
285.862	24813.68
285.93	24866.12
285.997	24903.85
286.065	24939.5
286.133	24958.66
286.201	25012.07
286.269	25017.96
286.336	25032.34
286.404	25066.16
286.472	25131.16
286.539	25109.5
286.607	25110.9
286.675	25155.45
286.743	25234.58
286.81	25263.2
286.878	25360.88
286.946	25369.28
287.013	25406.38
287.081	25452.04
287.149	25437.51
287.216	25542.23
287.284	25580.55
287.352	25628.57
287.419	25658.4
287.487	25751.42
287.555	25818.1
287.622	25847.68
287.69	25905.61
287.758	25983.28
287.825	26017.12
287.893	26028.27
287.96	26095.35
288.028	26176.65
288.096	26225.66
288.163	26281.76
288.231	26288.77
288.298	26318.32
288.366	26422.08
288.433	26458.23
288.501	26473.39
288.569	26528.09
288.636	26560.25
288.704	26645.68
288.771	26717.39
288.839	26732.89
288.906	26741.63
288.974	26811.83
289.041	26845.38
289.109	26859.92
289.176	26930.6
289.244	26979.27
289.311	27069.65
289.379	27140.78
289.446	27192.96
289.514	27235.33
289.581	27279.72
289.649	27342.7
289.716	27397.06
289.783	27417.49
289.851	27534.38
289.918	27579.3
289.986	27665.64
290.053	27732.17
290.121	27775.96
290.188	27826.79
290.255	27967.08
290.323	28007.18
290.39	28036.23
290.458	28110.82
290.525	28194.9
290.592	28219.02
290.66	28276.8
290.727	28309.48
290.794	28411.23
290.862	28454.98
290.929	28518.6
290.996	28563.55
291.064	28626.67
291.131	28705.14
291.198	28794.2
291.266	28835.3
291.333	28873.52
291.4	28931.93
291.468	29024.94
291.535	29057.28
291.602	29104.18
291.669	29127.84
291.737	29189.04
291.804	29232.51
291.871	29328.02
291.938	29402.4
292.006	29548.39
292.073	29634.08
292.14	29697.49
292.207	29707.55
292.275	29748.47
292.342	29803.95
292.409	29925.74
292.476	30049.41
292.543	30066.44
292.611	30095.91
292.678	30193.26
292.745	30336.01
292.812	30404.53
292.879	30432.65
292.946	30488.09
293.014	30587.83
293.081	30655.68
293.148	30742.58
293.215	30835.23
293.282	30861.41
293.349	30931.55
293.416	30893.3
293.484	30974.33
293.551	31059.09
293.618	31165.68
293.685	31296.65
293.752	31331.45
293.819	31362.15
293.886	31371.21
293.953	31443.62
294.02	31534.75
294.087	31597.03
294.154	31618.53
294.221	31724.52
294.288	31776.82
294.356	31885.28
294.423	31947.34
294.49	31961.43
294.557	32053.21
294.624	32070.84
294.691	32185.92
294.758	32249.82
294.825	32332.68
294.892	32365.28
294.959	32412.57
295.026	32479.53
295.093	32492.08
295.16	32548.06
295.226	32601.99
295.293	32732.64
295.36	32796.98
295.427	32870.69
295.494	32960.46
295.561	33035.95
295.628	33155.01
295.695	33249.51
295.762	33307.48
295.829	33381.55
295.896	33508.47
295.963	33588.08
296.03	33677.88
296.096	33741.49
296.163	33826.67
296.23	33928.87
296.297	34025.63
296.364	34072.54
296.431	34151.88
296.498	34204.96
296.564	34337.49
296.631	34404.83
296.698	34423.41
296.765	34536.1
296.832	34556.32
296.899	34569.75
296.965	34683.43
297.032	34665.09
297.099	34775.98
297.166	34857.08
297.233	34894.28
297.299	34912.17
297.366	34962.72
297.433	35021.6
297.5	35111.7
297.566	35157.88
297.633	35220.04
297.7	35275.48
297.767	35332.22
297.833	35378.02
297.9	35435.79
297.967	35438.31
298.033	35533.85
298.1	35673.28
298.167	35702.79
298.234	35787.97
298.3	35880.94
298.367	35909.28
298.434	35988.73
298.5	36011.45
298.567	36046.05
298.634	36103.89
298.7	36211.76
298.767	36266.99
298.834	36356.68
298.9	36381.58
298.967	36407.83
299.033	36472.64
299.1	36567.15
299.167	36665.85
299.233	36717.16
299.3	36812.19
299.366	36915.8
299.433	37014.61
299.5	36978.83
299.566	37040.82
299.633	37133.59
299.699	37209.04
299.766	37251.37
299.832	37307.51
299.899	37373.35
299.965	37464.86
300.032	37498.21
300.099	37565.51
300.165	37632.13
300.232	37672.33
300.298	37719.33
300.365	37825.67
300.431	37879.62
300.498	37902.35
300.564	37968.73
300.631	38060.42
300.697	38155.66
300.763	38201.5
300.83	38240.99
300.896	38331.17
300.963	38421.55
301.029	38485.18
301.096	38538.22
301.162	38631.23
301.229	38665.96
301.295	38684.7
301.361	38741.92
301.428	38804.32
301.494	38801.5
301.561	38855.66
301.627	38920.9
301.693	38988.02
301.76	39040.92
301.826	39077.84
301.892	39175.63
301.959	39259.63
302.025	39284.22
302.092	39317.55
302.158	39395.03
302.224	39435.6
302.291	39450.17
302.357	39473.01
302.423	39507.31
302.49	39525.33
302.556	39594.72
302.622	39629.84
302.688	39726.53
302.755	39823.28
302.821	39916.51
302.887	40005.71
302.954	40065.04
303.02	40141.52
303.086	40207.85
303.152	40246.53
303.219	40281.95
303.285	40344.26
303.351	40404.09
303.417	40462.45
303.483	40476.98
303.55	40512.55
303.616	40553.27
303.682	40611.39
303.748	40653.22
303.815	40749.17
303.881	40841.17
303.947	40861.44
304.013	40926.46
304.079	40938.17
304.145	40905.36
304.212	40936.37
304.278	40962.71
304.344	40993.33
304.41	40984.58
304.476	41003.54
304.542	41037.8
304.608	41097.82
304.674	41079.21
304.741	41102.35
304.807	41157.37
304.873	41224.16
304.939	41315.74
305.005	41309.13
305.071	41341.98
305.137	41390.54
305.203	41346.3
305.269	41367.16
305.335	41450.14
305.401	41477.51
305.467	41520.82
305.533	41602.63
305.599	41679.35
305.666	41742.05
305.732	41787.22
305.798	41876.28
305.864	42002.21
305.93	42060.16
305.996	42102.07
306.062	42160.21
306.128	42179.9
306.194	42182.96
306.259	42220.54
306.325	42222.44
306.391	42294.44
306.457	42366.88
306.523	42407.52
306.589	42529.23
306.655	42548.19
306.721	42525
306.787	42532.39
306.853	42611.84
306.919	42603.38
306.985	42600.76
307.051	42618.75
307.117	42627.94
307.183	42635.42
307.248	42576.24
307.314	42624.72
307.38	42677.05
307.446	42724.51
307.512	42744.89
307.578	42795.8
307.644	42818.26
307.709	42861.74
307.775	42892.72
307.841	42931.62
307.907	42971.94
307.973	42944.94
308.039	42998.73
308.104	43066.72
308.17	43120.45
308.236	43110.91
308.302	43162.51
308.368	43171.41
308.433	43205.01
308.499	43233.36
308.565	43240.99
308.631	43298.14
308.696	43257.24
308.762	43263.46
308.828	43294.74
308.894	43276.75
308.959	43244.51
309.025	43257.15
309.091	43280.45
309.156	43301.22
309.222	43333.57
309.288	43332.74
309.354	43296.71
309.419	43315.1
309.485	43301.62
309.551	43352.75
309.616	43346.62
309.682	43367.78
309.748	43388.4
309.813	43412.23
309.879	43428.47
309.945	43428.18
310.01	43431.44
310.076	43483.72
310.141	43493.26
310.207	43475.21
310.273	43522.77
310.338	43577.29
310.404	43553.6
310.469	43546.89
310.535	43544.7
310.601	43511.23
310.666	43579.05
310.732	43666.4
310.797	43672.48
310.863	43680.41
310.928	43695.5
310.994	43754.31
311.059	43784.81
311.125	43815.7
311.191	43898.66
311.256	43900.22
311.322	43968.07
311.387	43953.14
311.453	44845.77
311.518	44850.34
311.584	44883.47
311.649	44937.67
311.715	44950.7
311.78	45008.05
311.846	45015.34
311.911	45073.39
311.976	45118.38
312.042	45099.31
312.107	45079.41
312.173	45079.7
312.238	45094.98
312.304	45104.61
312.369	45109.92
312.434	45098.92
312.5	45100.72
312.565	45026.9
312.631	45088.49
312.696	45103.72
312.761	45155.24
312.827	44315.79
312.892	44431.14
312.958	44455.42
313.023	44478.2
313.088	44503.74
313.154	44496.2
313.219	44496.44
313.284	44499.9
313.35	44517.37
313.415	44518.19
313.48	44545.34
313.546	44596.97
313.611	44654.29
313.676	44662.46
313.741	44654.63
313.807	44712.35
313.872	44770.1
313.937	44822.89
314.003	44871.96
314.068	44898.77
314.133	44949.87
314.198	44930.75
314.264	44892.63
314.329	44904.31
314.394	44915.4
314.459	44945.48
314.525	45032.49
314.59	45072.72
314.655	45069.95
314.72	45123.49
314.785	45157.26
314.851	45163.49
314.916	45131.76
314.981	45129.42
315.046	45138.04
315.111	45147.53
315.176	45144.46
315.242	45192.9
315.307	45217.48
315.372	45184.62
315.437	45187.83
315.502	45179.56
315.567	45260.5
315.632	45240.99
315.698	45268.88
315.763	45297.21
315.828	45288.89
315.893	45289.38
315.958	45299.11
316.023	45298.57
316.088	45259.87
316.153	45205.96
316.218	45203.67
316.283	45162.71
316.348	45116.78
316.413	45105.78
316.479	45062.97
316.544	44956.08
316.609	44844.48
316.674	44724.55
316.739	44614.71
316.804	44494.88
316.869	44370.97
316.934	44219.15
316.999	44102.1
317.064	43911.71
317.129	43737.1
317.194	43596.49
317.259	43415.14
317.324	43216.67
317.389	43032.16
317.454	42863.73
317.518	42725.44
317.583	42603.51
317.648	42503.88
317.713	42360.67
317.778	42133.55
317.843	41991.87
317.908	41822.81
317.973	41654.21
318.038	41507.89
318.103	41343.51
318.168	41197.06
318.233	41042.15
318.297	40833.02
318.362	40656.12
318.427	40476.44
318.492	40331.13
318.557	40114.58
318.622	39960.93
318.687	39816.45
318.751	39626.13
318.816	39449.08
318.881	39278.28
318.946	39027.16
319.011	38797.92
319.075	38567.65
319.14	38383.45
319.205	38159.02
319.27	37976.5
319.335	37761.62
319.399	37552.25
319.464	37381.92
319.529	37123.23
319.594	36910.73
319.658	36733.99
319.723	36514.65
319.788	36349.55
319.853	36084.46
319.917	35914.36
319.982	35665.42
320.047	35455.92
320.112	35284.24
320.176	35035.68
320.241	34818.89
320.306	34635.12
320.37	34411.37
320.435	34225.26
320.5	34044.54
320.564	33824.66
320.629	33594.34
320.694	33377.1
320.758	33154.65
320.823	32900.42
320.888	32709.75
320.952	32450.29
321.017	32209.63
321.082	31987.71
321.146	31760.6
321.211	31560.86
321.275	31323.19
321.34	31073.54
321.405	30822.15
321.469	30572.39
321.534	30329.33
321.598	30064.39
321.663	29850.19
321.727	29638.54
321.792	29385.94
321.857	29139.43
321.921	28925.56
321.986	28684.6
322.05	28396.22
322.115	28170.14
322.179	27936.79
322.244	27660.93
322.308	27464.73
322.373	27218.61
322.437	26974.73
322.502	26790.01
322.566	26538.34
322.631	26307.59
322.695	26078.4
322.76	25834.32
322.824	25613.76
322.889	25369.4
322.953	25115.28
323.018	24801.03
323.082	24480.06
323.146	24191.99
323.211	23901
323.275	23636.22
323.34	23371.73
323.404	23153.59
323.468	22885.7
323.533	22625.42
323.597	22360.81
323.662	22066.12
323.726	21832.3
323.79	21559.07
323.855	21224.84
323.919	20948.4
323.983	20685.31
324.048	20290.09
324.112	20432.46
324.177	19616.17
324.241	18548.77
324.305	17502.25
324.37	16464.99
324.434	15468.46
324.498	15190.8
324.562	14880.45
324.627	14522.24
324.691	14181.71
324.755	13784.46
324.82	13336.39
324.884	12857.35
324.948	12385.57
325.012	11805.22
325.077	11083.3
