Data from 20250701_urea_2M_exp3_MAYP1162681_20-59-51-385.txt Node
Date: Tue Jul 01 20:59:51 BST 2025
User: adleo
Spectrometer: MAYP116268
Trigger mode: 0
Integration Time (sec): 4.000000E0
Scans to average: 1
Electric dark correction enabled: true
Nonlinearity correction enabled: true
Boxcar width: 10
XAxis mode: Wavelengths
Number of Pixels in Spectrum: 2068
>>>>>Begin Spectral Data<<<<<
179.565	3933.6
179.642	4142.58
179.718	4301.73
179.795	4445.05
179.871	4565.84
179.948	4628.65
180.024	4701.55
180.101	4785.55
180.177	4844.64
180.254	4933.8
180.33	5018.07
180.407	5307.65
180.483	5614.94
180.56	5924.59
180.636	6207.32
180.712	6166.7
180.789	6195.21
180.865	6236.5
180.942	6266.25
181.018	6308.73
181.095	6356.38
181.171	6374.76
181.248	6376.25
181.324	6433.26
181.4	6457.8
181.477	6497.47
181.553	6547.18
181.63	6620.79
181.706	6681.7
181.782	6703.58
181.859	6698.83
181.935	6715.26
182.011	6700.85
182.088	6753.3
182.164	6822.89
182.24	6876.14
182.317	6907.01
182.393	6905.14
182.469	6960.62
182.546	7013.85
182.622	7030.04
182.698	7019.99
182.775	7064.43
182.851	7114.59
182.927	7091
183.003	7076.73
183.08	7057.18
183.156	7093.17
183.232	7083.32
183.308	7037.38
183.385	7072.11
183.461	7134.63
183.537	7141.12
183.613	7183.83
183.69	7154.43
183.766	7119.23
183.842	7137.97
183.918	7157.53
183.995	7205.63
184.071	7215.87
184.147	7194.43
184.223	7155.39
184.299	7194.57
184.375	7155.41
184.452	7179.12
184.528	7308.48
184.604	7345.62
184.68	7385.4
184.756	7409.54
184.832	7427.47
184.908	7446.58
184.985	7440.48
185.061	7381.13
185.137	7410.31
185.213	7369.42
185.289	7376.62
185.365	7349.53
185.441	7346.02
185.517	7395.99
185.593	7380.07
185.669	7371.47
185.745	7407.18
185.822	7461.99
185.898	7429.11
185.974	7462.02
186.05	7434.85
186.126	7355.14
186.202	7332.12
186.278	7319.05
186.354	7284.97
186.43	7304.2
186.506	7296.52
186.582	7295.55
186.658	7314.72
186.734	7238.47
186.81	7253.85
186.886	7267.25
186.962	7309.63
187.038	7299.01
187.114	7270.06
187.19	7294.38
187.266	7257.48
187.341	7258.25
187.417	7230.04
187.493	7233.74
187.569	7244.85
187.645	7225.38
187.721	7185.86
187.797	7213.11
187.873	7225.46
187.949	7206.29
188.025	7185.42
188.101	7196.09
188.176	7215.21
188.252	7202.15
188.328	7232.88
188.404	7231.63
188.48	7210.77
188.556	7188.86
188.632	7186.65
188.707	7188.43
188.783	7186.26
188.859	7173.49
188.935	7130.37
189.011	7158.44
189.086	7135.9
189.162	7106.25
189.238	7094.1
189.314	7086.79
189.39	7066.9
189.465	7042.53
189.541	7099.15
189.617	7043.57
189.693	7024.98
189.768	7035.22
189.844	7123.64
189.92	7099.15
189.996	7127.75
190.071	7169.27
190.147	7161.77
190.223	7193.45
190.298	7162.25
190.374	7112.37
190.45	7151.37
190.526	7182.52
190.601	7164.78
190.677	7164.45
190.753	7264.15
190.828	7282.5
190.904	7332.83
190.98	7385.24
191.055	7428.84
191.131	7392.87
191.207	7473.8
191.282	7506.04
191.358	7471.39
191.433	7415.31
191.509	7464.16
191.585	7451.51
191.66	7451.03
191.736	7484.44
191.811	7451.22
191.887	7510.9
191.963	7599.07
192.038	7622.24
192.114	7628.88
192.189	7643.58
192.265	7639.5
192.34	7558.35
192.416	7548.16
192.491	7533.92
192.567	7542.54
192.642	7543.59
192.718	7551.43
192.793	7507.19
192.869	7496.19
192.944	7510.94
193.02	7543.2
193.095	7558.83
193.171	7582.24
193.246	7584.7
193.322	7578.4
193.397	7583.15
193.473	7532.03
193.548	7455.44
193.624	7471.98
193.699	7466.02
193.775	7524.31
193.85	7530.8
193.925	7568.45
194.001	7569.89
194.076	7542.97
194.152	7508.96
194.227	7485.4
194.302	7445.39
194.378	7454.28
194.453	7442.84
194.529	7483.95
194.604	7434.62
194.679	7407.7
194.755	7337.22
194.83	7382.68
194.905	7367.44
194.981	7402.34
195.056	7385.14
195.131	7412.58
195.207	7405.22
195.282	7366.87
195.357	7299.26
195.433	7352.23
195.508	7304.58
195.583	7330.25
195.659	7381.02
195.734	7400.26
195.809	7397.08
195.884	7431.77
195.96	7440.9
196.035	7495.89
196.11	7479.01
196.185	7519.05
196.261	7533.62
196.336	7647.36
196.411	7593
196.486	7612.32
196.561	7586.65
196.637	7614
196.712	7670.76
196.787	7682.69
196.862	7744.65
196.937	7780.22
197.013	7793.84
197.088	7831.19
197.163	7903.4
197.238	7963.67
197.313	7963.24
197.388	8010.61
197.464	8120.36
197.539	8150.27
197.614	8125.89
197.689	8167.5
197.764	8223.56
197.839	8291
197.914	8263
197.989	8342.63
198.065	8392.56
198.14	8572.81
198.215	8666.98
198.29	8707.47
198.365	8747.22
198.44	8781.72
198.515	8877.17
198.59	8935.37
198.665	9029.04
198.74	9057.06
198.815	9063.37
198.89	9143.7
198.965	9249.4
199.04	9222.92
199.115	9284.63
199.19	9438.04
199.265	9449.69
199.34	9491.59
199.415	9613.94
199.49	9692.02
199.565	9723.13
199.64	9801.53
199.715	9785.48
199.79	9808.12
199.865	9832.83
199.94	9833.64
200.015	9940.91
200.09	9961.72
200.165	9983.59
200.24	10003.77
200.315	10140.48
200.39	10196.46
200.464	10220.45
200.539	10230.47
200.614	10296.45
200.689	10381.68
200.764	10402.06
200.839	10471.7
200.914	10480.9
200.989	10438.4
201.063	10486.81
201.138	10426.24
201.213	10430.73
201.288	10366.65
201.363	10386.31
201.438	10385.39
201.512	10442.08
201.587	10388.5
201.662	10403.63
201.737	10449.59
201.812	10480.48
201.886	10367.03
201.961	10393.11
202.036	10352.07
202.111	10330.68
202.186	10230.29
202.26	10164.52
202.335	10084.11
202.41	10051.17
202.485	9988.56
202.559	9921.23
202.634	9824.95
202.709	9857.59
202.784	9782.36
202.858	9779.33
202.933	9713.78
203.008	9686.86
203.082	9614.67
203.157	9605.91
203.232	9448.36
203.306	9368.97
203.381	9254.4
203.456	9179.23
203.53	9098.77
203.605	9026.25
203.68	8952.52
203.754	8930.88
203.829	8882.92
203.904	8813.71
203.978	8775.67
204.053	8792.71
204.127	8750.27
204.202	8749.54
204.277	8685.49
204.351	8671.49
204.426	8646.88
204.5	8616.18
204.575	8496.68
204.65	8540.54
204.724	8513.53
204.799	8543.72
204.873	8530.82
204.948	8526.11
205.022	8482.14
205.097	8447.57
205.171	8495.82
205.246	8525.77
205.32	8521.49
205.395	8511.43
205.469	8485.37
205.544	8502.7
205.618	8440.81
205.693	8474.4
205.767	8433.02
205.842	8512.49
205.916	8488.19
205.991	8452.15
206.065	8471.2
206.14	8519.8
206.214	8491.39
206.289	8466.89
206.363	8509.38
206.438	8515.06
206.512	8542.16
206.586	8606.24
206.661	8635.42
206.735	8562.36
206.81	8560.53
206.884	8606.57
206.958	8567.51
207.033	8624.02
207.107	8652.48
207.181	8764.79
207.256	8746.41
207.33	8809.4
207.405	8849.67
207.479	8916.52
207.553	8945.44
207.628	8882.81
207.702	8929.39
207.776	8909.66
207.851	8922.6
207.925	8977.26
207.999	8967.2
208.073	8958.73
208.148	8968.64
208.222	8930.22
208.296	9043.05
208.371	9102.3
208.445	9148.43
208.519	9243.68
208.593	9283.88
208.668	9269.48
208.742	9279.6
208.816	9285.47
208.89	9336.67
208.965	9328.09
209.039	9351.74
209.113	9411.98
209.187	9490.59
209.261	9475.43
209.336	9547.56
209.41	9621.2
209.484	9625.73
209.558	9705.49
209.632	9752.58
209.707	9796.45
209.781	9874.85
209.855	9923.89
209.929	9979.89
210.003	9997.33
210.077	9989.62
210.151	10163.2
210.226	10284.38
210.3	10376.29
210.374	10458.78
210.448	10470.49
210.522	10507.25
210.596	10549.5
210.67	10580.1
210.744	10734.62
210.818	10853.34
210.892	10924.03
210.966	10896.29
211.041	10948.32
211.115	10931.99
211.189	11015.25
211.263	11071.87
211.337	11091.43
211.411	11142.56
211.485	11120.2
211.559	11161.15
211.633	11169.05
211.707	11055.06
211.781	11079.74
211.855	10950.6
211.929	10921.7
212.003	10854.55
212.077	10889.54
212.151	10928.29
212.225	10959.13
212.299	10927.32
212.373	10882.8
212.447	10859.42
212.52	10958.49
212.594	10968.37
212.668	11005.86
212.742	10952.61
212.816	10927.89
212.89	10904.42
212.964	10890.93
213.038	10893.29
213.112	10929.1
213.186	10981.81
213.26	10899.97
213.333	10730.28
213.407	10752.87
213.481	10752.92
213.555	10787.16
213.629	10738.05
213.703	10673
213.777	10657.82
213.85	10577.59
213.924	10679.71
213.998	10668.24
214.072	10633.05
214.146	10569.64
214.219	10551.96
214.293	10529.07
214.367	10515.48
214.441	10540.49
214.515	10494.71
214.588	10399.51
214.662	10267.37
214.736	10180.67
214.81	10196.51
214.883	10218.46
214.957	10163.13
215.031	10106.94
215.105	10007.89
215.178	9935.3
215.252	9894.55
215.326	9785.79
215.4	9700.15
215.473	9513.67
215.547	9429.66
215.621	9361
215.694	9353.3
215.768	9245.24
215.842	9166.04
215.915	9095.87
215.989	8974.85
216.063	8905.45
216.136	8880.32
216.21	8853.13
216.284	8861.41
216.357	8826.8
216.431	8775.24
216.504	8766.19
216.578	8824.16
216.652	8839.51
216.725	8816.16
216.799	8818.57
216.873	8807.35
216.946	8812.31
217.02	8772.2
217.093	8732.78
217.167	8629.25
217.24	8543.52
217.314	8505.57
217.387	8459.4
217.461	8411.42
217.535	8433.66
217.608	8369.86
217.682	8342.72
217.755	8355.95
217.829	8296.08
217.902	8284
217.976	8264.33
218.049	8215.59
218.123	8134.28
218.196	8130.34
218.27	8094.4
218.343	8018.41
218.417	8008.01
218.49	7984.49
218.563	8028.7
218.637	8039.67
218.71	8113.33
218.784	8139.27
218.857	8177.89
218.931	8205.44
219.004	8218.24
219.077	8238.94
219.151	8261.01
219.224	8251.49
219.298	8242.68
219.371	8292.1
219.444	8248.19
219.518	8263.3
219.591	8279.12
219.665	8385.14
219.738	8397.79
219.811	8378.99
219.885	8423.45
219.958	8454.34
220.031	8459.49
220.105	8486.39
220.178	8490.53
220.251	8464.2
220.325	8486.97
220.398	8498.67
220.471	8517.86
220.544	8551.11
220.618	8523.24
220.691	8551.01
220.764	8570.64
220.838	8603.9
220.911	8584.64
220.984	8679.81
221.057	8713.64
221.131	8741.31
221.204	8640.63
221.277	8714.72
221.35	8843.24
221.424	8835.54
221.497	8850.46
221.57	8875.62
221.643	8904.13
221.716	8958.63
221.79	8957
221.863	8974.19
221.936	8982.42
222.009	8995.46
222.082	9024.92
222.155	9034.12
222.229	9100.91
222.302	9133.73
222.375	9138.12
222.448	9178.75
222.521	9177.5
222.594	9179.52
222.667	9148.29
222.74	9206.73
222.814	9198.49
222.887	9181.49
222.96	9239.7
223.033	9278.95
223.106	9302.15
223.179	9329.75
223.252	9339.24
223.325	9377.32
223.398	9389.64
223.471	9426.24
223.544	9451.07
223.617	9466.58
223.69	9489.21
223.763	9448.75
223.837	9475.34
223.91	9503.36
223.983	9453.44
224.056	9419.31
224.129	9446.22
224.202	9510.33
224.275	9494.63
224.348	9464.01
224.42	9427.75
224.493	9373.05
224.566	9349.98
224.639	9375.11
224.712	9348.47
224.785	9333.11
224.858	9323.33
224.931	9301.42
225.004	9259.34
225.077	9253.66
225.15	9160.57
225.223	9159.56
225.296	9251.28
225.369	9191.44
225.442	9160.62
225.514	9184.83
225.587	9207.31
225.66	9208.9
225.733	9206.49
225.806	9217.08
225.879	9208.46
225.952	9174.82
226.025	9217.28
226.097	9274.51
226.17	9263.15
226.243	9194.84
226.316	9192.72
226.389	9200.18
226.461	9226.77
226.534	9246.12
226.607	9238.9
226.68	9325.44
226.753	9317.5
226.825	9222.98
226.898	9278.4
226.971	9278.44
227.044	9291.64
227.117	9298.09
227.189	9321.21
227.262	9358.68
227.335	9383.24
227.407	9379.92
227.48	9418.52
227.553	9437.84
227.626	9419.58
227.698	9424.49
227.771	9465.06
227.844	9438.34
227.916	9449.94
227.989	9411.75
228.062	9406.46
228.134	9504.47
228.207	9503.8
228.28	9498.55
228.352	9511.26
228.425	9523.21
228.498	9570.5
228.57	9549.32
228.643	9610.3
228.716	9604.91
228.788	9585.64
228.861	9576.53
228.934	9641.64
229.006	9645.68
229.079	9644.19
229.151	9622.42
229.224	9585.64
229.296	9615.69
229.369	9727.5
229.442	9779.77
229.514	9757.82
229.587	9812.33
229.659	9730.97
229.732	9745.9
229.804	9792.61
229.877	9883
229.949	9909.44
230.022	9976.95
230.094	9983.21
230.167	9968.42
230.239	9925.75
230.312	9918.24
230.384	9995.23
230.457	9989.93
230.529	10002.98
230.602	10002.36
230.674	10018.4
230.747	10068.9
230.819	10096.89
230.892	9968.81
230.964	9971.07
231.037	10006.5
231.109	9994.9
231.181	10036.55
231.254	9997.11
231.326	9982.8
231.399	9949.6
231.471	9920.17
231.544	9828.43
231.616	9878.9
231.688	9883.09
231.761	9879.38
231.833	9864.17
231.905	9774.85
231.978	9774.36
232.05	9755.87
232.122	9761.36
232.195	9732.85
232.267	9774.52
232.339	9752.74
232.412	9830.66
232.484	9806.62
232.556	9776.19
232.629	9848.47
232.701	9865.52
232.773	9881.07
232.846	9873.32
232.918	9884.21
232.99	9904.54
233.062	9948.71
233.135	9955.89
233.207	9921.74
233.279	9962.72
233.351	10004.86
233.424	10005.72
233.496	9984.82
233.568	10076.44
233.64	10041.33
233.713	10065.23
233.785	10055.88
233.857	10073.75
233.929	10015.81
234.001	10085.11
234.074	10156.42
234.146	10079.81
234.218	10072.11
234.29	10069.99
234.362	10052.89
234.434	10001.63
234.507	9967.91
234.579	9908.47
234.651	9890.31
234.723	9926.25
234.795	9943.64
234.867	9930.87
234.939	9993.45
235.012	10014.35
235.084	10015.08
235.156	10053.12
235.228	10022.44
235.3	10002.11
235.372	10014.69
235.444	10075.95
235.516	9994.71
235.588	9998.42
235.66	10016.68
235.732	9992.25
235.804	10196.16
235.876	10244.32
235.948	10308.4
236.02	10322.85
236.092	10343.41
236.164	10360.9
236.236	10358.1
236.308	10359.02
236.38	10394.77
236.452	10375.06
236.524	10391.05
236.596	10452.94
236.668	10486.76
236.74	10516.15
236.812	10548.71
236.884	10585.19
236.956	10595.16
237.028	10581.2
237.1	10563.9
237.172	10640.42
237.244	10726.58
237.316	10602.16
237.388	10588.72
237.46	10568.97
237.532	10637.19
237.604	10627.32
237.675	10701.34
237.747	10752.7
237.819	10736.81
237.891	10742.49
237.963	10736.47
238.035	10737.48
238.107	10625.2
238.178	10696.19
238.25	10703.13
238.322	10807.86
238.394	10752.3
238.466	10762.95
238.538	10812.04
238.609	10856.41
238.681	10794.92
238.753	10771.45
238.825	10796.42
238.897	10823.11
238.968	10911.4
239.04	10891.69
239.112	11017.65
239.184	10975.09
239.255	10972.11
239.327	11011.37
239.399	11036.81
239.471	11085.1
239.542	11123.4
239.614	11192.65
239.686	11095.3
239.758	11156.25
239.829	11108.34
239.901	11185.15
239.973	11195.22
240.044	11231.7
240.116	11244.09
240.188	11260.76
240.259	11273.92
240.331	11265.63
240.403	11308.03
240.474	11255.35
240.546	11241.76
240.618	11168.79
240.689	11169.66
240.761	11188.02
240.833	11258
240.904	11259.5
240.976	11260.03
241.048	11274.73
241.119	11317.14
241.191	11372.37
241.262	11441.39
241.334	11450.6
241.405	11448.43
241.477	11453.92
241.549	11466.89
241.62	11499.42
241.692	11551.18
241.763	11619.97
241.835	11643.54
241.906	11656.36
241.978	11630.24
242.049	11701.85
242.121	11773.81
242.192	11847.26
242.264	11810.53
242.335	11761.57
242.407	11807.69
242.478	11815.35
242.55	11835.74
242.621	11816.99
242.693	11814.92
242.764	11804.65
242.836	11810.53
242.907	11847.89
242.979	11883.22
243.05	11902.74
243.122	11927.42
243.193	11927.13
243.264	11848.51
243.336	11852.08
243.407	11894.35
243.479	11972.92
243.55	11983.33
243.622	11994.22
243.693	11993.36
243.764	12062.23
243.836	12044.83
243.907	12035.87
243.978	12035.1
244.05	12069.22
244.121	12025.22
244.192	12071.83
244.264	12018.42
244.335	12029.8
244.407	11979.43
244.478	12002.95
244.549	11995.87
244.62	11942.17
244.692	11936.92
244.763	11985.31
244.834	11970.8
244.906	11950.31
244.977	11977.79
245.048	12046.73
245.119	12026.05
245.191	12007.15
245.262	11944.78
245.333	12017.37
245.405	12030.57
245.476	12070.1
245.547	12087.98
245.618	12141.19
245.689	12153.82
245.761	12191.51
245.832	12195.95
245.903	12244.78
245.974	12269.26
246.045	12279.39
246.117	12372.61
246.188	12356.17
246.259	12335.74
246.33	12357.67
246.401	12367.65
246.473	12328.74
246.544	12305.8
246.615	12368.56
246.686	12369.33
246.757	12452.72
246.828	12430.59
246.899	12504.78
246.97	12468.78
247.042	12456.68
247.113	12500.21
247.184	12597.1
247.255	12586.54
247.326	12618.89
247.397	12628.05
247.468	12634.41
247.539	12656.44
247.61	12610.69
247.681	12669.69
247.752	12727.25
247.823	12698.71
247.894	12714.48
247.965	12683.14
248.037	12668.54
248.108	12608.28
248.179	12621.68
248.25	12613.15
248.321	12645.83
248.392	12600.08
248.463	12683.62
248.534	12679.04
248.605	12707.72
248.675	12677.02
248.746	12710.23
248.817	12725.32
248.888	12752.07
248.959	12705.36
249.03	12736.07
249.101	12749.23
249.172	12731.87
249.243	12654.37
249.314	12725.27
249.385	12738.53
249.456	12770.2
249.527	12769.77
249.598	12803.07
249.669	12801.97
249.739	12818.55
249.81	12837.59
249.881	12794.49
249.952	12795.65
250.023	12790.93
250.094	12730.81
250.165	12687.62
250.235	12679.62
250.306	12683.09
250.377	12634.5
250.448	12650.26
250.519	12578
250.59	12634.89
250.66	12626.45
250.731	12710.61
250.802	12710.95
250.873	12730.23
250.944	12762.72
251.014	12751.54
251.085	12842.07
251.156	12867.38
251.227	12923.01
251.297	12977.09
251.368	13032.05
251.439	13073.17
251.51	13126.19
251.58	13115.11
251.651	13125.95
251.722	13184.81
251.792	13131.84
251.863	13145.82
251.934	13214.36
252.005	13337.05
252.075	13348.28
252.146	13396.58
252.217	13447.73
252.287	13491.5
252.358	13496.03
252.429	13570.41
252.499	13560.24
252.57	13572.39
252.641	13624.74
252.711	13623.25
252.782	13575.04
252.852	13646.1
252.923	13644.41
252.994	13664.46
253.064	13723.22
253.135	13698.16
253.205	13675.16
253.276	13758.17
253.347	13827.11
253.417	13804.31
253.488	13773.55
253.558	13760.73
253.629	13766.9
253.699	13780.59
253.77	13807.63
253.841	13798.38
253.911	13805.03
253.982	13825.08
254.052	13848.85
254.123	13858.92
254.193	13869.24
254.264	14012.98
254.334	13985.12
254.405	13955.38
254.475	13921.87
254.546	13921.29
254.616	13990.71
254.687	14024.7
254.757	14042.82
254.827	14039.35
254.898	14066.97
254.968	14088.23
255.039	14065.38
255.109	14102.65
255.18	14071.22
255.25	13998.62
255.321	14038.24
255.391	13996.06
255.461	14097.01
255.532	14014.29
255.602	14008.12
255.673	13943.52
255.743	13907.85
255.813	13835.83
255.884	13883.65
255.954	13917.88
256.024	13988.07
256.095	13989.85
256.165	13954.37
256.235	13986.91
256.306	13976.78
256.376	14020.99
256.446	14059.31
256.517	14107.95
256.587	14152.68
256.657	14174.67
256.728	14201.08
256.798	14206.68
256.868	14200.84
256.938	14159.1
257.009	14204.56
257.079	14239.65
257.149	14344.11
257.219	14275.08
257.29	14317.79
257.36	14258.93
257.43	14301.26
257.5	14231.65
257.571	14220.03
257.641	14257.63
257.711	14216.46
257.781	14246.59
257.852	14263.08
257.922	14190.53
257.992	14187.25
258.062	14183.01
258.132	14224.51
258.202	14229.14
258.273	14241
258.343	14317.65
258.413	14309.4
258.483	14322.56
258.553	14280.29
258.623	14259.17
258.693	14289.45
258.764	14349.17
258.834	14414.88
258.904	14429.97
258.974	14419.46
259.044	14429.05
259.114	14459.42
259.184	14487.52
259.254	14495.48
259.324	14444.48
259.394	14492.49
259.464	14580.07
259.535	14587.45
259.605	14582.48
259.675	14576.75
259.745	14614.11
259.815	14589.09
259.885	14588.46
259.955	14701.3
260.025	14694.59
260.095	14705.01
260.165	14734.07
260.235	14811.63
260.305	14801.6
260.375	14772.01
260.445	14864.17
260.515	14930.26
260.585	14976.63
260.655	14982.99
260.725	15031.49
260.795	15069.18
260.865	15154.79
260.934	15115.84
261.004	15148.91
261.074	15148.43
261.144	15218.42
261.214	15255.44
261.284	15259.3
261.354	15303.16
261.424	15259.26
261.494	15334.65
261.564	15340.38
261.634	15374.08
261.703	15290.74
261.773	15323.52
261.843	15357.98
261.913	15359.43
261.983	15302.6
262.053	15328.19
262.123	15327.8
262.192	15286.35
262.262	15335.42
262.332	15274.78
262.402	15310.79
262.472	15317.54
262.541	15259.06
262.611	15296.71
262.681	15273.38
262.751	15310.59
262.821	15311.36
262.89	15276.61
262.96	15302.11
263.03	15379.71
263.1	15398.27
263.169	15422.51
263.239	15449.36
263.309	15516.45
263.379	15545.18
263.448	15569.62
263.518	15591.36
263.588	15604.81
263.657	15675.57
263.727	15707.57
263.797	15725.16
263.867	15714.08
263.936	15667.9
264.006	15735.97
264.076	15731.53
264.145	15728.83
264.215	15713.89
264.285	15766.57
264.354	15722.03
264.424	15705.65
264.494	15655.62
264.563	15647.42
264.633	15730.66
264.702	15751.24
264.772	15694.61
264.842	15685.55
264.911	15722.28
264.981	15676.68
265.05	15693.94
265.12	15685.89
265.19	15696.64
265.259	15746.09
265.329	15787.78
265.398	15818.58
265.468	15918.02
265.537	15904.09
265.607	15945.83
265.676	15998.22
265.746	16008.39
265.815	16064.93
265.885	16075.97
265.955	16061.12
266.024	16060.93
266.094	15995.48
266.163	16060.93
266.232	16130.96
266.302	16146.82
266.371	16166.72
266.441	16191.74
266.51	16239.94
266.58	16247.17
266.649	16231.12
266.719	16284.27
266.788	16315.51
266.858	16394.55
266.927	16324.13
266.996	16359.95
267.066	16389.83
267.135	16352.76
267.205	16401.87
267.274	16433.97
267.343	16489.3
267.413	16513.45
267.482	16580.88
267.552	16651.01
267.621	16594.23
267.69	16543.92
267.76	16567.73
267.829	16591.58
267.898	16607.68
267.968	16588.55
268.037	16631.63
268.106	16690.48
268.176	16652.79
268.245	16659.97
268.314	16641.22
268.384	16700.56
268.453	16717.81
268.522	16740.89
268.592	16809.91
268.661	16786.25
268.73	16812.03
268.799	16805.24
268.869	16887.12
268.938	16838.64
269.007	16821.63
269.076	16859.03
269.146	16922.4
269.215	16956.57
269.284	17035.71
269.353	17029.54
269.422	17036.43
269.492	17030.98
269.561	16943.99
269.63	16975.22
269.699	16964.81
269.768	16993.05
269.838	17014.79
269.907	17062.6
269.976	17027.08
270.045	16964.04
270.114	17013.14
270.183	17025.14
270.253	17054.5
270.322	16998.64
270.391	17021.24
270.46	17086.69
270.529	17125.24
270.598	17164.52
270.667	17170.4
270.736	17135.17
270.806	17174.55
270.875	17243.27
270.944	17250.02
271.013	17373.2
271.082	17402.5
271.151	17443.95
271.22	17398.21
271.289	17404.23
271.358	17405.44
271.427	17446.74
271.496	17483.13
271.565	17481.97
271.634	17509.78
271.703	17646.5
271.772	17718.5
271.841	17736.67
271.91	17705.2
271.979	17726.26
272.048	17686.74
272.117	17739.9
272.186	17741.92
272.255	17795.12
272.324	17830.16
272.393	17863.75
272.462	17855.41
272.531	17875.85
272.6	17887.8
272.669	17963.8
272.738	17977.1
272.807	18011.75
272.876	17992.76
272.945	18138.25
273.013	18196.95
273.082	18258.92
273.151	18153.09
273.22	18192.75
273.289	18217.96
273.358	18309.33
273.427	18319.25
273.496	18380.07
273.564	18409.18
273.633	18462.91
273.702	18440.21
273.771	18451.01
273.84	18487.34
273.909	18532.26
273.977	18567.68
274.046	18580.11
274.115	18636.97
274.184	18634.66
274.253	18655.43
274.322	18739.28
274.39	18677.89
274.459	18667.96
274.528	18620.59
274.597	18653.7
274.665	18674.42
274.734	18744.3
274.803	18751.43
274.872	18770.13
274.94	18765.79
275.009	19001.84
275.078	19001.46
275.147	19040.39
275.215	19067.67
275.284	19138.12
275.353	19152.48
275.421	19117.35
275.49	19222.99
275.559	19228.96
275.627	19260.62
275.696	19278.98
275.765	19318.45
275.833	19329.87
275.902	19370.4
275.971	19445
276.039	19522.05
276.108	19577.47
276.177	19619.49
276.245	19627.88
276.314	19665.52
276.383	19732.07
276.451	19557.41
276.52	19621.98
276.588	19713.26
276.657	19769.59
276.725	19775.71
276.794	19816.44
276.863	19902.12
276.931	19855.81
277	19924.96
277.068	19998.11
277.137	20103.17
277.205	20144.04
277.274	20259.75
277.342	20338.25
277.411	20315.94
277.48	20322.79
277.548	20336.52
277.617	20377.24
277.685	20403.99
277.754	20458.93
277.822	20477.15
277.89	20569.3
277.959	20586.84
278.027	20561.11
278.096	20571.42
278.164	20702.96
278.233	20716.79
278.301	20729.27
278.37	20795.78
278.438	20792.36
278.507	20839.73
278.575	20796.65
278.643	20821.51
278.712	20801.46
278.78	20792.98
278.849	20884.31
278.917	20966.73
278.985	20988.27
279.054	21039.12
279.122	21120.81
279.191	21163.61
279.259	21185.54
279.327	21151.12
279.396	21238.03
279.464	21264.68
279.532	21324.44
279.601	21353.57
279.669	21383.3
279.737	21472.33
279.806	21530.08
279.874	21607.92
279.942	21644.7
280.011	21671.59
280.079	21737.58
280.147	21830.41
280.215	21892.64
280.284	21909.03
280.352	21904.35
280.42	21980.32
280.488	21984.61
280.557	21995.36
280.625	22040.34
280.693	22095.04
280.761	22138.28
280.83	22129.75
280.898	22231.27
280.966	22213.58
281.034	22143.04
281.102	22143.86
281.171	22165.99
281.239	22237.35
281.307	22261.51
281.375	22274.04
281.443	22417.43
281.512	22454.79
281.58	22515.45
281.648	22506.63
281.716	22545.34
281.784	22589.64
281.852	22608.73
281.92	22651.31
281.989	22728.69
282.057	22717.89
282.125	22907.98
282.193	22956.05
282.261	23003.54
282.329	23021.09
282.397	23089.55
282.465	23146.58
282.533	23249.27
282.601	23247.39
282.67	23200.61
282.738	23208.71
282.806	23288.12
282.874	23274.04
282.942	23323.14
283.01	23351.01
283.078	23422.04
283.146	23463.02
283.214	23534.15
283.282	23588.51
283.35	23676.29
283.418	23701.66
283.486	23766.7
283.554	23662.15
283.622	23704.26
283.69	23748.53
283.758	23780.74
283.826	23842.23
283.894	23922.93
283.962	24030.99
284.03	24134.06
284.098	24194.1
284.165	24232.97
284.233	24276.96
284.301	24307.49
284.369	24330.12
284.437	24339.57
284.505	24372.47
284.573	24476.71
284.641	24479.75
284.709	24556.62
284.777	24538.86
284.845	24608.87
284.912	24675.45
284.98	24753.41
285.048	24770.2
285.116	24842.57
285.184	24933.47
285.252	24979.84
285.319	24965.61
285.387	24981.44
285.455	24971.65
285.523	25047.93
285.591	25083.24
285.659	25134.25
285.726	25213.44
285.794	25204.46
285.862	25252.19
285.93	25288.56
285.997	25311.39
286.065	25344.2
286.133	25347.87
286.201	25394.39
286.269	25396.27
286.336	25404.28
286.404	25419.67
286.472	25509.45
286.539	25462.16
286.607	25446.91
286.675	25493.87
286.743	25576.83
286.81	25598.8
286.878	25683.02
286.946	25697.5
287.013	25737.99
287.081	25774.34
287.149	25769.9
287.216	25881.25
287.284	25909.88
287.352	25960.65
287.419	25999.23
287.487	26099.36
287.555	26148.75
287.622	26184.43
287.69	26245.89
287.758	26328.54
287.825	26366.05
287.893	26363.11
287.96	26443.75
288.028	26529.46
288.096	26579.06
288.163	26629.43
288.231	26626.53
288.298	26678.79
288.366	26772.1
288.433	26811.63
288.501	26827.67
288.569	26884.26
288.636	26909.91
288.704	26996.42
288.771	27068.96
288.839	27085.38
288.906	27091.85
288.974	27173.37
289.041	27210.4
289.109	27222.48
289.176	27304.24
289.244	27359.25
289.311	27451.62
289.379	27529.77
289.446	27581.43
289.514	27622.02
289.581	27666.62
289.649	27727.33
289.716	27771.12
289.783	27789.53
289.851	27903.64
289.918	27953.16
289.986	28035.36
290.053	28105.53
290.121	28146.47
290.188	28195
290.255	28343.59
290.323	28385.68
290.39	28415.71
290.458	28484.17
290.525	28573.34
290.592	28592.34
290.66	28648.16
290.727	28678.43
290.794	28766.52
290.862	28812.98
290.929	28863.94
290.996	28911.85
291.064	28993.26
291.131	29061.1
291.198	29144.62
291.266	29190.22
291.333	29235.55
291.4	29297.61
291.468	29397.07
291.535	29429.91
291.602	29482.67
291.669	29492.64
291.737	29557.77
291.804	29595.11
291.871	29700.79
291.938	29775.05
292.006	29917.25
292.073	29998.46
292.14	30081.72
292.207	30108.81
292.275	30146.89
292.342	30219.07
292.409	30341.9
292.476	30457.18
292.543	30483.12
292.611	30522.37
292.678	30614.71
292.745	30758.28
292.812	30831.32
292.879	30859.89
292.946	30918.68
293.014	31011.42
293.081	31077.01
293.148	31156.67
293.215	31269.67
293.282	31290
293.349	31359.43
293.416	31332.94
293.484	31422.51
293.551	31500.87
293.618	31590.77
293.685	31726.51
293.752	31757.3
293.819	31783.89
293.886	31804.19
293.953	31871.58
294.02	31959.63
294.087	32034.13
294.154	32052.44
294.221	32158.47
294.288	32198.67
294.356	32300.18
294.423	32351.97
294.49	32369.26
294.557	32467.02
294.624	32481.41
294.691	32606.35
294.758	32652.52
294.825	32722.28
294.892	32741.51
294.959	32776.11
295.026	32839.01
295.093	32865.91
295.16	32918.08
295.226	32978.94
295.293	33103.29
295.36	33175.53
295.427	33258.86
295.494	33348.22
295.561	33416.98
295.628	33525.84
295.695	33627.24
295.762	33686.67
295.829	33784.66
295.896	33893.46
295.963	33978.91
296.03	34052.83
296.096	34113.01
296.163	34206.05
296.23	34317.63
296.297	34415.9
296.364	34472.67
296.431	34554.38
296.498	34590.6
296.564	34732.66
296.631	34792.11
296.698	34784.01
296.765	34900.85
296.832	34909.58
296.899	34920.83
296.965	35037.92
297.032	35019.04
297.099	35131.23
297.166	35213.16
297.233	35248.09
297.299	35282.18
297.366	35333.23
297.433	35396.24
297.5	35470.72
297.566	35524.82
297.633	35570.29
297.7	35633.8
297.767	35674.74
297.833	35739.37
297.9	35803.16
297.967	35790.74
298.033	35882.07
298.1	36046.65
298.167	36074.75
298.234	36153.4
298.3	36229.2
298.367	36260.95
298.434	36332.98
298.5	36355.7
298.567	36391.76
298.634	36438.11
298.7	36552.64
298.767	36599.97
298.834	36705.84
298.9	36744.38
298.967	36768.94
299.033	36857.16
299.1	36949.06
299.167	37070.65
299.233	37111.57
299.3	37211.76
299.366	37340.54
299.433	37444.07
299.5	37395.02
299.566	37454.79
299.633	37565.15
299.699	37652.07
299.766	37698.73
299.832	37760.45
299.899	37832.42
299.965	37913.75
300.032	37948.61
300.099	38011.64
300.165	38080.74
300.232	38112.7
300.298	38163.06
300.365	38259.64
300.431	38299.22
300.498	38325.89
300.564	38374.65
300.631	38449.93
300.697	38546.64
300.763	38578.31
300.83	38608.52
300.896	38704.63
300.963	38787.98
301.029	38840.54
301.096	38894.32
301.162	38978.3
301.229	39001.57
301.295	39006.38
301.361	39075.7
301.428	39135.58
301.494	39127.61
301.561	39190.14
301.627	39244.4
301.693	39300.85
301.76	39367.55
301.826	39406.32
301.892	39512.82
301.959	39596.63
302.025	39650.42
302.092	39669.76
302.158	39744.77
302.224	39803.91
302.291	39819.5
302.357	39852.69
302.423	39879.85
302.49	39904.92
302.556	39983.94
302.622	40048.61
302.688	40145.11
302.755	40240.32
302.821	40330.4
302.887	40428.78
302.954	40464.89
303.02	40533.46
303.086	40605.14
303.152	40628.85
303.219	40658.01
303.285	40696.84
303.351	40751.77
303.417	40796.77
303.483	40817.81
303.55	40835.89
303.616	40883.28
303.682	40929.35
303.748	40961.33
303.815	41058.54
303.881	41130.77
303.947	41139.37
304.013	41183.26
304.079	41187
304.145	41160.75
304.212	41201.1
304.278	41205.47
304.344	41239.06
304.41	41232.54
304.476	41236.92
304.542	41283.48
304.608	41360.18
304.674	41355.86
304.741	41373.55
304.807	41428.83
304.873	41492.5
304.939	41597.02
305.005	41580.01
305.071	41623.56
305.137	41683.3
305.203	41648.58
305.269	41684.32
305.335	41765.86
305.401	41816.22
305.467	41862.26
305.533	41940.68
305.599	42020.51
305.666	42100.58
305.732	42143.75
305.798	42249.64
305.864	42395.72
305.93	42470.26
305.996	42510.27
306.062	42551.45
306.128	42587.09
306.194	42586.75
306.259	42629.45
306.325	42628.38
306.391	42695.37
306.457	42763.93
306.523	42809.34
306.589	42931.7
306.655	42960.2
306.721	42938.99
306.787	42930.44
306.853	43015.74
306.919	42991.67
306.985	43013.89
307.051	43032.71
307.117	43051.09
307.183	43064.56
307.248	42997.88
307.314	43027.01
307.38	43063.64
307.446	43116.79
307.512	43131.57
307.578	43188.52
307.644	43201.12
307.709	43261.57
307.775	43296.1
307.841	43331.22
307.907	43365.31
307.973	43343.33
308.039	43357.33
308.104	43415.79
308.17	43460.92
308.236	43461.11
308.302	43509.45
308.368	43484.79
308.433	43535.04
308.499	43565.77
308.565	43566.99
308.631	43630.03
308.696	43595.54
308.762	43599.53
308.828	43631.44
308.894	43606.35
308.959	43586.17
309.025	43610.39
309.091	43636.27
309.156	43654.22
309.222	43697.08
309.288	43686.77
309.354	43653.06
309.419	43694.07
309.485	43683.42
309.551	43746.81
309.616	43739.41
309.682	43767.72
309.748	43786.89
309.813	43788.93
309.879	43794.72
309.945	43791.75
310.01	43793.65
310.076	43841.27
310.141	43862.48
310.207	43852.26
310.273	43915.15
310.338	43967.58
310.404	43948.95
310.469	43930.66
310.535	43937.96
310.601	43899.57
310.666	43958.73
310.732	44033.89
310.797	44036.18
310.863	44039.92
310.928	44054.86
310.994	44106.38
311.059	44138.54
311.125	44173.23
311.191	44269.44
311.256	44287.93
311.322	44354.53
311.387	44339.69
311.453	45215.68
311.518	45245.32
311.584	45291.25
311.649	45329.54
311.715	45336.6
311.78	45381.11
311.846	45394.34
311.911	45460.48
311.976	45517.45
312.042	45503.63
312.107	45489.08
312.173	45505.82
312.238	45538.03
312.304	45557.11
312.369	45556.08
312.434	45563.87
312.5	45566.2
312.565	45477.48
312.631	45523.22
312.696	45524.92
312.761	45573.24
312.827	44750.09
312.892	44849.42
312.958	44871.12
313.023	44909.72
313.088	44945.39
313.154	44938.53
313.219	44929.38
313.284	44923.05
313.35	44947.39
313.415	44954.2
313.48	44970.89
313.546	45012.07
313.611	45067.74
313.676	45053.82
313.741	45060.78
313.807	45097.58
313.872	45154.47
313.937	45209.01
314.003	45280.72
314.068	45326.33
314.133	45380.61
314.198	45379.98
314.264	45332.49
314.329	45323
314.394	45347.54
314.459	45359.32
314.525	45462.21
314.59	45508.59
314.655	45501.04
314.72	45547.05
314.785	45588.86
314.851	45606.53
314.916	45583.45
314.981	45571.92
315.046	45589.29
315.111	45590.12
315.176	45594.5
315.242	45644.26
315.307	45678.29
315.372	45641.92
315.437	45641.58
315.502	45627.56
315.567	45693.82
315.632	45676.78
315.698	45719.96
315.763	45735.5
315.828	45732.04
315.893	45738.47
315.958	45740.9
316.023	45724.31
316.088	45670.65
316.153	45614.59
316.218	45611.72
316.283	45568.27
316.348	45520.67
316.413	45516
316.479	45479.8
316.544	45363.94
316.609	45244.74
316.674	45110.1
316.739	44992.3
316.804	44879.75
316.869	44758.35
316.934	44614.68
316.999	44493.04
317.064	44301.64
317.129	44125.73
317.194	43986.26
317.259	43790.95
317.324	43594.56
317.389	43430.26
317.454	43272.76
317.518	43130.96
317.583	43002.44
317.648	42885.29
317.713	42729.68
317.778	42503.3
317.843	42361.4
317.908	42206.87
317.973	42045.35
318.038	41910.49
318.103	41736.43
318.168	41581.73
318.233	41429.92
318.297	41213.23
318.362	41032.46
318.427	40855.33
318.492	40728.47
318.557	40527.2
318.622	40390.14
318.687	40256.76
318.751	40071.27
318.816	39894.45
318.881	39725.57
318.946	39474.48
319.011	39251.2
319.075	39051.16
319.14	38854.27
319.205	38630.78
319.27	38451.34
319.335	38224.45
319.399	38016.7
319.464	37852.33
319.529	37593.3
319.594	37386.15
319.658	37209.49
319.723	36997.88
319.788	36820.38
319.853	36533.1
319.917	36343.07
319.982	36055.41
320.047	35829.08
320.112	35648.15
320.176	35396.44
320.241	35182.63
320.306	35003.34
320.37	34779.95
320.435	34583.27
320.5	34401.61
320.564	34183.85
320.629	33941.23
320.694	33743.29
320.758	33516.63
320.823	33262.51
320.888	33077.75
320.952	32816.76
321.017	32577.3
321.082	32344.87
321.146	32132
321.211	31931.2
321.275	31690.55
321.34	31454.62
321.405	31220.3
321.469	30971.08
321.534	30727.58
321.598	30464.12
321.663	30260.46
321.727	30049.79
321.792	29791.34
321.857	29547.26
321.921	29317.67
321.986	29085.81
322.05	28799.23
322.115	28574.41
322.179	28323.15
322.244	28030.86
322.308	27821.03
322.373	27562.17
322.437	27320.04
322.502	27128.4
322.566	26868.73
322.631	26657.92
322.695	26433.33
322.76	26185.9
322.824	25951.03
322.889	25705.96
322.953	25447.98
323.018	25114.99
323.082	24796.25
323.146	24505.88
323.211	24221.28
323.275	23959.08
323.34	23699.41
323.404	23460.81
323.468	23195.15
323.533	22949.71
323.597	22689.96
323.662	22397.9
323.726	22165.42
323.79	21894.78
323.855	21551.31
323.919	21276.64
323.983	20999.31
324.048	20601.33
324.112	20802.12
324.177	19991
324.241	18907.94
324.305	17842.52
324.37	16794.08
324.434	15780.19
324.498	15508.48
324.562	15192.67
324.627	14836.03
324.691	14481.25
324.755	14095.41
324.82	13640.84
324.884	13164.87
324.948	12693.35
325.012	12111.45
325.077	11397.63
