Data from 20250701_urea_2M_exp3_MAYP1162681_21-19-51-281.txt Node
Date: Tue Jul 01 21:19:51 BST 2025
User: adleo
Spectrometer: MAYP116268
Trigger mode: 0
Integration Time (sec): 4.000000E0
Scans to average: 1
Electric dark correction enabled: true
Nonlinearity correction enabled: true
Boxcar width: 10
XAxis mode: Wavelengths
Number of Pixels in Spectrum: 2068
>>>>>Begin Spectral Data<<<<<
179.565	3929.08
179.642	4136.26
179.718	4295.29
179.795	4431.24
179.871	4545.97
179.948	4609.41
180.024	4688.66
180.101	4771.54
180.177	4824.64
180.254	4910.52
180.33	4991.49
180.407	5276.71
180.483	5580.11
180.56	5885.77
180.636	6168.18
180.712	6124.28
180.789	6153.95
180.865	6192.65
180.942	6224.9
181.018	6263.68
181.095	6311.18
181.171	6330.67
181.248	6330.47
181.324	6386
181.4	6416.15
181.477	6456.29
181.553	6500.34
181.63	6573.67
181.706	6631.69
181.782	6661.54
181.859	6656.59
181.935	6673.64
182.011	6660.34
182.088	6717.07
182.164	6793.53
182.24	6842.5
182.317	6875.58
182.393	6879.04
182.469	6931.54
182.546	6982.51
182.622	6997.3
182.698	6985.82
182.775	7028
182.851	7079.45
182.927	7050.24
183.003	7031.89
183.08	7010.52
183.156	7048.85
183.232	7036.55
183.308	6990.48
183.385	7017.52
183.461	7079.84
183.537	7083.3
183.613	7127.45
183.69	7094.97
183.766	7049.97
183.842	7072.37
183.918	7091.68
183.995	7133.77
184.071	7141.99
184.147	7115.08
184.223	7080.8
184.299	7115.5
184.375	7077.45
184.452	7103.27
184.528	7239.65
184.604	7283.12
184.68	7324.97
184.756	7347.85
184.832	7361.02
184.908	7382.44
184.985	7381.86
185.061	7325.21
185.137	7361.21
185.213	7321.23
185.289	7327.53
185.365	7303.51
185.441	7298.32
185.517	7350.88
185.593	7335.93
185.669	7325.16
185.745	7364.96
185.822	7416.79
185.898	7388.81
185.974	7422.92
186.05	7388.16
186.126	7307.63
186.202	7277.51
186.278	7264
186.354	7227.08
186.43	7248.48
186.506	7243.49
186.582	7240.99
186.658	7262.7
186.734	7184.68
186.81	7193.56
186.886	7207.26
186.962	7249.83
187.038	7236.57
187.114	7200.78
187.19	7226.55
187.266	7201.03
187.341	7201.85
187.417	7181.19
187.493	7182.73
187.569	7192.48
187.645	7173.07
187.721	7133.51
187.797	7163.1
187.873	7179.3
187.949	7167.2
188.025	7142.82
188.101	7153.14
188.176	7172.46
188.252	7158.72
188.328	7195.69
188.404	7200.69
188.48	7182.19
188.556	7159.99
188.632	7159.85
188.707	7166.48
188.783	7156.91
188.859	7138.33
188.935	7099.68
189.011	7128.04
189.086	7108.72
189.162	7076.62
189.238	7069.27
189.314	7059.04
189.39	7037.8
189.465	7015.07
189.541	7071.4
189.617	7023.93
189.693	7003.62
189.768	7013.42
189.844	7095.88
189.92	7063.46
189.996	7086.43
190.071	7124.3
190.147	7120.02
190.223	7157.09
190.298	7127.62
190.374	7086.44
190.45	7124.82
190.526	7152.74
190.601	7136.2
190.677	7141.44
190.753	7241.19
190.828	7254.16
190.904	7305.88
190.98	7355.44
191.055	7390.57
191.131	7360.96
191.207	7432.75
191.282	7469.51
191.358	7435.48
191.433	7386.38
191.509	7435.32
191.585	7430.75
191.66	7432.05
191.736	7462.76
191.811	7432.14
191.887	7487.15
191.963	7565.07
192.038	7585.74
192.114	7583.34
192.189	7593
192.265	7577.44
192.34	7502.63
192.416	7497.25
192.491	7486
192.567	7495.33
192.642	7505.67
192.718	7504.66
192.793	7457.89
192.869	7443.52
192.944	7455.77
193.02	7485.25
193.095	7500.24
193.171	7518.95
193.246	7515.73
193.322	7505.92
193.397	7507.17
193.473	7457.11
193.548	7391.43
193.624	7409.95
193.699	7409.8
193.775	7468.29
193.85	7475.49
193.925	7506.31
194.001	7507.71
194.076	7476.61
194.152	7444.19
194.227	7414.86
194.302	7372.16
194.378	7388.5
194.453	7376.01
194.529	7420.33
194.604	7368.37
194.679	7342.32
194.755	7271.5
194.83	7318.78
194.905	7307.29
194.981	7333.88
195.056	7314.32
195.131	7338.3
195.207	7330.75
195.282	7298.51
195.357	7224.69
195.433	7279.67
195.508	7236.21
195.583	7263.51
195.659	7314.76
195.734	7337.12
195.809	7336.98
195.884	7379.15
195.96	7382.76
196.035	7437.07
196.11	7417.45
196.185	7454.75
196.261	7471.9
196.336	7582.89
196.411	7527.1
196.486	7549.16
196.561	7528.73
196.637	7559.44
196.712	7617.83
196.787	7624.47
196.862	7679.7
196.937	7719.7
197.013	7734.75
197.088	7767.39
197.163	7837.83
197.238	7901.17
197.313	7903.82
197.388	7953.3
197.464	8055.06
197.539	8094.16
197.614	8068.15
197.689	8113.46
197.764	8174.57
197.839	8237.05
197.914	8216.84
197.989	8298.82
198.065	8346.53
198.14	8520.71
198.215	8616.9
198.29	8655.31
198.365	8703.92
198.44	8743.28
198.515	8844.99
198.59	8904.24
198.665	8999.25
198.74	9030.26
198.815	9029.01
198.89	9104.34
198.965	9204.83
199.04	9199.2
199.115	9250.32
199.19	9404.45
199.265	9408.2
199.34	9443.16
199.415	9561.99
199.49	9638.67
199.565	9677.05
199.64	9756.36
199.715	9743.11
199.79	9761.65
199.865	9783.47
199.94	9779.43
200.015	9886.55
200.09	9894.93
200.165	9913.91
200.24	9938.67
200.315	10072.68
200.39	10128.7
200.464	10148.36
200.539	10151.92
200.614	10201.34
200.689	10285.11
200.764	10303.95
200.839	10373
200.914	10389.62
200.989	10354.59
201.063	10404.16
201.138	10334.64
201.213	10343.22
201.288	10280.16
201.363	10296.25
201.438	10295.87
201.512	10355.49
201.587	10293.38
201.662	10307.07
201.737	10350.96
201.812	10377.65
201.886	10274.18
201.961	10301.45
202.036	10266.49
202.111	10262.54
202.186	10164.46
202.26	10104.62
202.335	10028.45
202.41	10007.21
202.485	9944.37
202.559	9874
202.634	9778.35
202.709	9814.11
202.784	9736.96
202.858	9735.85
202.933	9670.45
203.008	9643.1
203.082	9566.49
203.157	9564.9
203.232	9418.72
203.306	9343.72
203.381	9224.04
203.456	9134.68
203.53	9057.54
203.605	8983.39
203.68	8900.8
203.754	8872.85
203.829	8814.5
203.904	8744.28
203.978	8702.73
204.053	8720.73
204.127	8677.52
204.202	8674.05
204.277	8609.77
204.351	8587.15
204.426	8558.65
204.5	8534.73
204.575	8418.94
204.65	8456.16
204.724	8427.46
204.799	8450.34
204.873	8436.67
204.948	8432.34
205.022	8391.46
205.097	8362.71
205.171	8412.55
205.246	8437.73
205.32	8432.25
205.395	8436.34
205.469	8406.05
205.544	8425.83
205.618	8366.59
205.693	8412.94
205.767	8369.69
205.842	8446.16
205.916	8434.7
205.991	8402.56
206.065	8422.58
206.14	8476.62
206.214	8456.35
206.289	8429.39
206.363	8480.83
206.438	8487.04
206.512	8515.14
206.586	8580.86
206.661	8605.56
206.735	8534.33
206.81	8537.12
206.884	8593.84
206.958	8548.09
207.033	8609.31
207.107	8630.12
207.181	8739.01
207.256	8711.72
207.33	8775.58
207.405	8827.65
207.479	8889.88
207.553	8917.12
207.628	8854.87
207.702	8892.11
207.776	8873.68
207.851	8887.68
207.925	8939.5
207.999	8928.53
208.073	8919.14
208.148	8934.16
208.222	8895.4
208.296	9007.03
208.371	9064.21
208.445	9098.63
208.519	9203.94
208.593	9240.34
208.668	9230.17
208.742	9230.61
208.816	9236.82
208.89	9283.39
208.965	9264.84
209.039	9289.79
209.113	9350.36
209.187	9424.74
209.261	9412.27
209.336	9479.25
209.41	9547.34
209.484	9541.9
209.558	9623.82
209.632	9670.62
209.707	9703.18
209.781	9776.08
209.855	9824.69
209.929	9874.85
210.003	9903.95
210.077	9895.23
210.151	10069.62
210.226	10191.18
210.3	10290.27
210.374	10375.02
210.448	10393.72
210.522	10438.29
210.596	10479.09
210.67	10508.82
210.744	10674.76
210.818	10787.99
210.892	10864.31
210.966	10842.97
211.041	10904.79
211.115	10885.47
211.189	10970.51
211.263	11033.49
211.337	11061.67
211.411	11107.26
211.485	11093.38
211.559	11126.19
211.633	11135.01
211.707	11026.12
211.781	11047.96
211.855	10922
211.929	10887.8
212.003	10814.35
212.077	10841.53
212.151	10874.73
212.225	10908.46
212.299	10867.06
212.373	10822.59
212.447	10802.97
212.52	10904.12
212.594	10902.04
212.668	10943.24
212.742	10892.79
212.816	10865.08
212.89	10838.53
212.964	10834.29
213.038	10837.81
213.112	10878.24
213.186	10924.73
213.26	10840.49
213.333	10677.79
213.407	10685.83
213.481	10693.34
213.555	10727.15
213.629	10681.51
213.703	10609.81
213.777	10598.97
213.85	10517.44
213.924	10629.58
213.998	10616.18
214.072	10577.28
214.146	10516.58
214.219	10494.12
214.293	10468.83
214.367	10461.41
214.441	10484.3
214.515	10425.27
214.588	10324.43
214.662	10189.31
214.736	10099.29
214.81	10113.63
214.883	10128.89
214.957	10083.25
215.031	10021.67
215.105	9928.44
215.178	9856.82
215.252	9822.24
215.326	9705.73
215.4	9622.73
215.473	9427.35
215.547	9338.43
215.621	9267.08
215.694	9262.7
215.768	9158.21
215.842	9084.98
215.915	9011.2
215.989	8891.15
216.063	8829.84
216.136	8810.49
216.21	8777.91
216.284	8793.46
216.357	8765.93
216.431	8722.17
216.504	8714.95
216.578	8768.92
216.652	8776.33
216.725	8749.9
216.799	8754.38
216.873	8740.76
216.946	8741.72
217.02	8704.74
217.093	8671.58
217.167	8573.7
217.24	8485.03
217.314	8446.75
217.387	8396.93
217.461	8349.77
217.535	8372.63
217.608	8309.46
217.682	8282.99
217.755	8303.87
217.829	8241.16
217.902	8220.27
217.976	8194.73
218.049	8144.7
218.123	8059.65
218.196	8061.72
218.27	8026.36
218.343	7947.48
218.417	7937.48
218.49	7916.22
218.563	7962.49
218.637	7973.08
218.71	8042.89
218.784	8076.37
218.857	8111.34
218.931	8135.71
219.004	8146.25
219.077	8164.2
219.151	8186.95
219.224	8174.87
219.298	8165.78
219.371	8215.59
219.444	8173.27
219.518	8181.54
219.591	8201.16
219.665	8315.5
219.738	8326.08
219.811	8305.46
219.885	8357.27
219.958	8393.31
220.031	8397.79
220.105	8415.35
220.178	8420.98
220.251	8392.25
220.325	8417.81
220.398	8439.03
220.471	8462.31
220.544	8499.32
220.618	8475.93
220.691	8503.88
220.764	8524.62
220.838	8556.58
220.911	8539.39
220.984	8628.54
221.057	8671.03
221.131	8697.78
221.204	8596.87
221.277	8675.33
221.35	8805.67
221.424	8796.96
221.497	8810.63
221.57	8834.3
221.643	8874.65
221.716	8919.37
221.79	8925.39
221.863	8931.89
221.936	8936.41
222.009	8949.64
222.082	8977.04
222.155	8987.53
222.229	9053.36
222.302	9084.21
222.375	9089.7
222.448	9133.99
222.521	9141.51
222.594	9143.48
222.667	9114.13
222.74	9173.38
222.814	9164.71
222.887	9146.84
222.96	9207.51
223.033	9249.41
223.106	9279.01
223.179	9303.33
223.252	9317.01
223.325	9352.54
223.398	9372.86
223.471	9406.18
223.544	9432.31
223.617	9439.92
223.69	9463.56
223.763	9422.24
223.837	9446.99
223.91	9474.29
223.983	9417.44
224.056	9386.19
224.129	9406.37
224.202	9462.34
224.275	9448.71
224.348	9414.81
224.42	9378.31
224.493	9315.05
224.566	9289.57
224.639	9312.97
224.712	9285.22
224.785	9271.5
224.858	9254.45
224.931	9237.6
225.004	9196.72
225.077	9192.63
225.15	9103.35
225.223	9100.08
225.296	9188.04
225.369	9126.76
225.442	9088.81
225.514	9108.35
225.587	9122.02
225.66	9129.49
225.733	9131.99
225.806	9143.93
225.879	9137
225.952	9106.2
226.025	9152.12
226.097	9207.04
226.17	9196.35
226.243	9127.08
226.316	9126.89
226.389	9140.76
226.461	9158.86
226.534	9178.26
226.607	9162.76
226.68	9254.4
226.753	9247.47
226.825	9152.62
226.898	9215.54
226.971	9219.49
227.044	9239.13
227.117	9253.67
227.189	9273.85
227.262	9308.48
227.335	9322.4
227.407	9321.58
227.48	9356.86
227.553	9373.53
227.626	9353.24
227.698	9355.41
227.771	9395.35
227.844	9369.69
227.916	9386.3
227.989	9348.6
228.062	9343.98
228.134	9439.53
228.207	9435.82
228.28	9426.58
228.352	9442.75
228.425	9443.04
228.498	9494.72
228.57	9472.81
228.643	9529.65
228.716	9528.49
228.788	9513.13
228.861	9508.94
228.934	9572.94
229.006	9581.02
229.079	9582.85
229.151	9570.62
229.224	9537.88
229.296	9565.38
229.369	9675.16
229.442	9727.14
229.514	9703.61
229.587	9755.23
229.659	9678.69
229.732	9696.47
229.804	9743.61
229.877	9832.35
229.949	9868.14
230.022	9919.51
230.094	9923.12
230.167	9911.75
230.239	9862.68
230.312	9857.96
230.384	9929.89
230.457	9925.12
230.529	9933.93
230.602	9940.87
230.674	9951.37
230.747	9993.4
230.819	10026.39
230.892	9901.06
230.964	9900.19
231.037	9936.87
231.109	9920.16
231.181	9959.74
231.254	9917.94
231.326	9899.88
231.399	9867.78
231.471	9839.26
231.544	9759.1
231.616	9806.14
231.688	9810.58
231.761	9805.67
231.833	9788.33
231.905	9702.73
231.978	9702.82
232.05	9691.02
232.122	9691.94
232.195	9660.87
232.267	9702.06
232.339	9679.56
232.412	9749.09
232.484	9725.1
232.556	9692.94
232.629	9768.78
232.701	9792.87
232.773	9811.84
232.846	9804.62
232.918	9807.84
232.99	9825.96
233.062	9874.51
233.135	9886.89
233.207	9847.54
233.279	9889.19
233.351	9923.86
233.424	9922.08
233.496	9896.74
233.568	9983.94
233.64	9942.33
233.713	9962.07
233.785	9953.69
233.857	9960.72
233.929	9905.1
234.001	9972.42
234.074	10044.07
234.146	9971.31
234.218	9960.81
234.29	9954.74
234.362	9943.19
234.434	9903.63
234.507	9866.64
234.579	9809.95
234.651	9794.1
234.723	9827.87
234.795	9849.11
234.867	9847.28
234.939	9907.44
235.012	9923.33
235.084	9924.92
235.156	9964.56
235.228	9943.99
235.3	9924.49
235.372	9941.78
235.444	10007.33
235.516	9924.21
235.588	9935.68
235.66	9954.75
235.732	9929.27
235.804	10139.15
235.876	10191.16
235.948	10256.69
236.02	10277.2
236.092	10295.26
236.164	10306.01
236.236	10309.14
236.308	10310.63
236.38	10338.62
236.452	10323.59
236.524	10345.7
236.596	10408.12
236.668	10443.67
236.74	10473.54
236.812	10513.71
236.884	10549.76
236.956	10562.38
237.028	10558.14
237.1	10536.37
237.172	10609.71
237.244	10694.31
237.316	10568.36
237.388	10545.96
237.46	10521.19
237.532	10579.49
237.604	10566.15
237.675	10638.77
237.747	10683.82
237.819	10674.52
237.891	10680.79
237.963	10669.66
238.035	10667.25
238.107	10553.47
238.178	10620.22
238.25	10628.8
238.322	10719.89
238.394	10672.86
238.466	10671.22
238.538	10717.62
238.609	10764.4
238.681	10701.46
238.753	10676.84
238.825	10699.2
238.897	10730.94
238.968	10816.06
239.04	10799.63
239.112	10925.34
239.184	10884.28
239.255	10881.68
239.327	10918.34
239.399	10941.08
239.471	10997.46
239.542	11035.33
239.614	11109.15
239.686	11023.37
239.758	11078.98
239.829	11036.03
239.901	11110.72
239.973	11135.49
240.044	11166.62
240.116	11174.23
240.188	11195.24
240.259	11210.9
240.331	11204.2
240.403	11245.93
240.474	11191.42
240.546	11186.36
240.618	11118.79
240.689	11118.5
240.761	11138.55
240.833	11196.77
240.904	11193.44
240.976	11185.16
241.048	11204.29
241.119	11240.82
241.191	11289.64
241.262	11359.39
241.334	11374.43
241.405	11374.57
241.477	11372.98
241.549	11387.97
241.62	11417.8
241.692	11466
241.763	11531.4
241.835	11549.67
241.906	11563.89
241.978	11538.16
242.049	11605.82
242.121	11664.66
242.192	11750.65
242.264	11721.83
242.335	11680.67
242.407	11731.61
242.478	11745.25
242.55	11767.95
242.621	11748.04
242.693	11749.92
242.764	11741.58
242.836	11740.14
242.907	11774.5
242.979	11807.33
243.05	11823.38
243.122	11846.22
243.193	11847.86
243.264	11766.5
243.336	11771.23
243.407	11811.67
243.479	11897.36
243.55	11910.09
243.622	11927.1
243.693	11915.15
243.764	11976.75
243.836	11951.98
243.907	11938.43
243.978	11940.51
244.05	11963.93
244.121	11918.48
244.192	11964.13
244.264	11911.35
244.335	11922.96
244.407	11872.4
244.478	11892.5
244.549	11888.79
244.62	11847.63
244.692	11844.93
244.763	11898.86
244.834	11891.82
244.906	11868.49
244.977	11890.48
245.048	11948.42
245.119	11930.25
245.191	11906.92
245.262	11849.66
245.333	11935.93
245.405	11951.11
245.476	11990.06
245.547	12012.86
245.618	12076.48
245.689	12082.7
245.761	12117.79
245.832	12124.68
245.903	12171.1
245.974	12194.57
246.045	12202.86
246.117	12289.58
246.188	12267.84
246.259	12249.81
246.33	12265.58
246.401	12275.65
246.473	12238.44
246.544	12226.14
246.615	12284.76
246.686	12289.63
246.757	12363.18
246.828	12336.81
246.899	12421.7
246.97	12384.06
247.042	12367.81
247.113	12415.63
247.184	12507.03
247.255	12504.33
247.326	12531.33
247.397	12531.04
247.468	12548.78
247.539	12569.31
247.61	12520.87
247.681	12574.47
247.752	12634.38
247.823	12611.68
247.894	12633.47
247.965	12599.97
248.037	12583.53
248.108	12532.05
248.179	12541.88
248.25	12541.06
248.321	12569.31
248.392	12517
248.463	12603.09
248.534	12605.5
248.605	12617.03
248.675	12593.12
248.746	12616.54
248.817	12633.75
248.888	12669.04
248.959	12607.15
249.03	12630.72
249.101	12644.7
249.172	12635.97
249.243	12559.48
249.314	12625.32
249.385	12635.2
249.456	12678.25
249.527	12673.33
249.598	12696.76
249.669	12701.91
249.739	12712.91
249.81	12725.68
249.881	12682.39
249.952	12677.09
250.023	12677.57
250.094	12622.96
250.165	12596.88
250.235	12588.78
250.306	12585.88
250.377	12545.2
250.448	12571.86
250.519	12508.03
250.59	12568.63
250.66	12560.82
250.731	12626.42
250.802	12620.97
250.873	12638.04
250.944	12656.16
251.014	12646.81
251.085	12742.6
251.156	12763.37
251.227	12813.17
251.297	12873.96
251.368	12931.37
251.439	12976.78
251.51	13030.82
251.58	13022.24
251.651	13011.1
251.722	13069.82
251.792	13026.63
251.863	13033.14
251.934	13108.38
252.005	13229.57
252.075	13237.48
252.146	13291.08
252.217	13345.7
252.287	13394
252.358	13395.93
252.429	13473.21
252.499	13460.38
252.57	13469.93
252.641	13521.46
252.711	13531.2
252.782	13485.5
252.852	13567.21
252.923	13569.04
252.994	13584.61
253.064	13639.42
253.135	13622.98
253.205	13600.42
253.276	13678.61
253.347	13744.56
253.417	13715.25
253.488	13690.8
253.558	13677.74
253.629	13676.01
253.699	13686.27
253.77	13715.34
253.841	13715.39
253.911	13718.76
253.982	13751.74
254.052	13774.87
254.123	13789.96
254.193	13794.4
254.264	13934.91
254.334	13893.36
254.405	13855.61
254.475	13816.42
254.546	13827.41
254.616	13891.91
254.687	13920.69
254.757	13947.35
254.827	13945.9
254.898	13968.27
254.968	13977.29
255.039	13956.9
255.109	13998.59
255.18	13973.67
255.25	13896.59
255.321	13926.96
255.391	13886.76
255.461	13970.1
255.532	13885.99
255.602	13870.8
255.673	13812.81
255.743	13772.56
255.813	13700.98
255.884	13753.04
255.954	13793.15
256.024	13854.75
256.095	13856.97
256.165	13826.89
256.235	13851.71
256.306	13841.93
256.376	13897.03
256.446	13935.06
256.517	13976.66
256.587	14013.69
256.657	14037.31
256.728	14067
256.798	14080.84
256.868	14077.03
256.938	14040.39
257.009	14091.3
257.079	14129.48
257.149	14230.56
257.219	14167.61
257.29	14210.03
257.36	14152.04
257.43	14193.73
257.5	14124.85
257.571	14112.85
257.641	14143.55
257.711	14108.41
257.781	14139.94
257.852	14152.28
257.922	14095.25
257.992	14103.98
258.062	14105.42
258.132	14149.48
258.202	14146.16
258.273	14157.29
258.343	14232.35
258.413	14224.59
258.483	14235
258.553	14197.83
258.623	14169.78
258.693	14198.65
258.764	14257.46
258.834	14323.17
258.904	14339.51
258.974	14325.29
259.044	14339.56
259.114	14374.6
259.184	14397.69
259.254	14398.99
259.324	14340.14
259.394	14389.64
259.464	14463.35
259.535	14465.08
259.605	14455.34
259.675	14450.43
259.745	14487.79
259.815	14468.5
259.885	14477.47
259.955	14589.82
260.025	14585.82
260.095	14604.38
260.165	14644.01
260.235	14716.79
260.305	14709.7
260.375	14673.6
260.445	14770.44
260.515	14837.78
260.585	14883.43
260.655	14893.65
260.725	14945.33
260.795	14994.59
260.865	15062.22
260.934	15025.54
261.004	15057.64
261.074	15065.83
261.144	15138.67
261.214	15175.88
261.284	15185.77
261.354	15218.4
261.424	15171.46
261.494	15247.48
261.564	15252.1
261.634	15276.78
261.703	15208.72
261.773	15236.25
261.843	15270.52
261.913	15266.09
261.983	15203.28
262.053	15228.29
262.123	15219.62
262.192	15181.78
262.262	15220.48
262.332	15173.58
262.402	15210.99
262.472	15218.89
262.541	15158.54
262.611	15194.5
262.681	15169.1
262.751	15199.51
262.821	15205.83
262.89	15179.8
262.96	15212.04
263.03	15290.32
263.1	15312.59
263.169	15334.47
263.239	15368.65
263.309	15439.4
263.379	15464.95
263.448	15480.91
263.518	15502.26
263.588	15519.71
263.657	15592.64
263.727	15622.28
263.797	15634.04
263.867	15632.16
263.936	15592.64
264.006	15658.34
264.076	15657.52
264.145	15653.57
264.215	15636.31
264.285	15680.13
264.354	15631.25
264.424	15607.53
264.494	15559.34
264.563	15548.4
264.633	15627.92
264.702	15646.24
264.772	15579.82
264.842	15579.39
264.911	15615.83
264.981	15570.81
265.05	15593.61
265.12	15588.55
265.19	15608.02
265.259	15655.11
265.329	15691.55
265.398	15715.51
265.468	15818.75
265.537	15814.7
265.607	15853.6
265.676	15907.15
265.746	15936.36
265.815	16002.92
265.885	16014.35
265.955	15996.8
266.024	15997.91
266.094	15927.11
266.163	15992.12
266.232	16070.06
266.302	16076.95
266.371	16109
266.441	16132.28
266.51	16176.1
266.58	16179.81
266.649	16165.4
266.719	16217.5
266.788	16244.58
266.858	16318.28
266.927	16235.76
266.996	16257.6
267.066	16295.53
267.135	16263.19
267.205	16297.65
267.274	16317.17
267.343	16375.1
267.413	16397.27
267.482	16449.52
267.552	16526.25
267.621	16471.12
267.69	16425.28
267.76	16454.44
267.829	16481.29
267.898	16502.16
267.968	16480.37
268.037	16523.55
268.106	16572.86
268.176	16540.33
268.245	16548.71
268.314	16542.93
268.384	16615.47
268.453	16641.83
268.522	16662.26
268.592	16722.17
268.661	16711.19
268.73	16741.07
268.799	16723.48
268.869	16811.1
268.938	16775.62
269.007	16756.1
269.076	16782.66
269.146	16840.4
269.215	16877.9
269.284	16952.79
269.353	16955.39
269.422	16978.67
269.492	16971.83
269.561	16886.37
269.63	16918.42
269.699	16917.84
269.768	16937.75
269.838	16949.51
269.907	16990.81
269.976	16955.05
270.045	16906.13
270.114	16942.32
270.183	16948.16
270.253	16981.31
270.322	16920.88
270.391	16943.29
270.46	17011.72
270.529	17058.66
270.598	17098.71
270.667	17098.04
270.736	17066.71
270.806	17099.68
270.875	17150.28
270.944	17155
271.013	17291.06
271.082	17317.18
271.151	17348.6
271.22	17309.51
271.289	17322.33
271.358	17328.98
271.427	17363.78
271.496	17388.07
271.565	17381.08
271.634	17408.6
271.703	17539.39
271.772	17613.03
271.841	17630.24
271.91	17595.54
271.979	17618.24
272.048	17592.36
272.117	17640.07
272.186	17640.79
272.255	17689.61
272.324	17734.38
272.393	17777.46
272.462	17759.73
272.531	17783.92
272.6	17800.06
272.669	17872.21
272.738	17881.75
272.807	17915.44
272.876	17899.48
272.945	18050.9
273.013	18109.99
273.082	18171.38
273.151	18075.19
273.22	18109.12
273.289	18133.31
273.358	18229.4
273.427	18233.79
273.496	18285.55
273.564	18334.99
273.633	18388.14
273.702	18373.35
273.771	18382.55
273.84	18420.77
273.909	18466.26
273.977	18501.82
274.046	18511.12
274.115	18578.93
274.184	18586.3
274.253	18598.59
274.322	18688.32
274.39	18623.65
274.459	18618.98
274.528	18568.43
274.597	18592.91
274.665	18617.82
274.734	18689.33
274.803	18686.54
274.872	18711.65
274.94	18709.14
275.009	18927.11
275.078	18921.43
275.147	18953.71
275.215	18972.7
275.284	19030
275.353	19038.53
275.421	18997.81
275.49	19096.45
275.559	19095.06
275.627	19116.84
275.696	19150.28
275.765	19184.16
275.833	19207.58
275.902	19258.66
275.971	19347.28
276.039	19445.35
276.108	19505.88
276.177	19539.8
276.245	19557.05
276.314	19588.67
276.383	19648.23
276.451	19474.79
276.52	19535.31
276.588	19625.91
276.657	19694.29
276.725	19702.25
276.794	19753.96
276.863	19845.66
276.931	19808.41
277	19878.09
277.068	19957.03
277.137	20048.35
277.205	20090.23
277.274	20193.07
277.342	20274.38
277.411	20254.14
277.48	20248.93
277.548	20253.51
277.617	20299.92
277.685	20328.35
277.754	20389.27
277.822	20412.4
277.89	20509.81
277.959	20526.38
278.027	20508.65
278.096	20515.11
278.164	20658.79
278.233	20665.73
278.301	20674.21
278.37	20735.75
278.438	20740.72
278.507	20784.67
278.575	20742.21
278.643	20763.56
278.712	20740.91
278.78	20720.04
278.849	20794.35
278.917	20866.31
278.985	20901.4
279.054	20952.58
279.122	21030.47
279.191	21056.3
279.259	21085.31
279.327	21049.26
279.396	21148.21
279.464	21179.2
279.532	21249.33
279.601	21268.28
279.669	21304.47
279.737	21392.63
279.806	21446.57
279.874	21504.65
279.942	21540.12
280.011	21572.07
280.079	21643.94
280.147	21739.52
280.215	21807.05
280.284	21839.49
280.352	21838.14
280.42	21915.12
280.488	21930.12
280.557	21951.23
280.625	22011.05
280.693	22059.78
280.761	22108.71
280.83	22098.97
280.898	22177.44
280.966	22145.97
281.034	22080.4
281.102	22085.56
281.171	22102.81
281.239	22185.89
281.307	22209.27
281.375	22225.18
281.443	22362.24
281.512	22390.45
281.58	22452.46
281.648	22443.05
281.716	22478.68
281.784	22526.79
281.852	22529.78
281.92	22562.75
281.989	22633.63
282.057	22623.22
282.125	22803.94
282.193	22840.29
282.261	22885.85
282.329	22912.04
282.397	22976.97
282.465	23032.8
282.533	23120.83
282.601	23133.89
282.67	23094.78
282.738	23111.71
282.806	23191.94
282.874	23184.65
282.942	23243.2
283.01	23260.61
283.078	23316.3
283.146	23353.52
283.214	23434.49
283.282	23494.05
283.35	23582.55
283.418	23609.23
283.486	23671.14
283.554	23577.06
283.622	23626.49
283.69	23661.69
283.758	23696.66
283.826	23762.87
283.894	23840.18
283.962	23946.51
284.03	24037.37
284.098	24085.31
284.165	24118.29
284.233	24161.36
284.301	24187.89
284.369	24205.21
284.437	24233.86
284.505	24280.6
284.573	24383.39
284.641	24383
284.709	24455.38
284.777	24442.3
284.845	24514.73
284.912	24577.73
284.98	24642.03
285.048	24672.18
285.116	24747.11
285.184	24843.32
285.252	24885.39
285.319	24877.57
285.387	24904.26
285.455	24903.4
285.523	24979.29
285.591	25019.95
285.659	25062.85
285.726	25162.7
285.794	25153.72
285.862	25193.97
285.93	25235.07
285.997	25261.47
286.065	25284.82
286.133	25297.81
286.201	25343.5
286.269	25334.28
286.336	25343.55
286.404	25366.76
286.472	25443.12
286.539	25412.14
286.607	25398.29
286.675	25442.88
286.743	25517.68
286.81	25534.1
286.878	25625.81
286.946	25643.09
287.013	25689.02
287.081	25735.32
287.149	25714.99
287.216	25836.04
287.284	25867.61
287.352	25917.76
287.419	25942.77
287.487	26053.42
287.555	26111.17
287.622	26142.69
287.69	26214.49
287.758	26307.57
287.825	26342.03
287.893	26343.92
287.96	26405.4
288.028	26482.22
288.096	26536.64
288.163	26595.12
288.231	26602.32
288.298	26639.9
288.366	26728.71
288.433	26760.71
288.501	26783.27
288.569	26835.51
288.636	26844.49
288.704	26935.06
288.771	26997.41
288.839	27016.58
288.906	27027.16
288.974	27104.91
289.041	27145.57
289.109	27151.8
289.176	27219.98
289.244	27273.3
289.311	27355.61
289.379	27436.61
289.446	27494.83
289.514	27540.15
289.581	27580.21
289.649	27638.85
289.716	27680.94
289.783	27705.83
289.851	27828.39
289.918	27882.45
289.986	27962.47
290.053	28036.3
290.121	28072.03
290.188	28124.7
290.255	28274.1
290.323	28303.19
290.39	28316.43
290.458	28389.73
290.525	28491.18
290.592	28522.9
290.66	28577.89
290.727	28609.17
290.794	28708.47
290.862	28748.7
290.929	28807.73
290.996	28855.1
291.064	28938.06
291.131	29025.15
291.198	29106.01
291.266	29139.61
291.333	29187.32
291.4	29249.71
291.468	29345.15
291.535	29381.27
291.602	29443.76
291.669	29461.42
291.737	29521.99
291.804	29568.71
291.871	29670.19
291.938	29729.17
292.006	29867.1
292.073	29954.5
292.14	30036.1
292.207	30052.26
292.275	30097.01
292.342	30162.28
292.409	30291.49
292.476	30408.62
292.543	30425.22
292.611	30465
292.678	30569
292.745	30697.43
292.812	30772.98
292.879	30799.08
292.946	30839.57
293.014	30921.96
293.081	30995.19
293.148	31087.67
293.215	31178.92
293.282	31198.33
293.349	31280.93
293.416	31251.24
293.484	31341.44
293.551	31424.29
293.618	31527.17
293.685	31656.32
293.752	31684.25
293.819	31717.58
293.886	31717.43
293.953	31790.83
294.02	31878.15
294.087	31936.23
294.154	31945.28
294.221	32041.65
294.288	32099.92
294.356	32217.5
294.423	32287.94
294.49	32305.13
294.557	32393.54
294.624	32424.45
294.691	32538.82
294.758	32580.44
294.825	32644.77
294.892	32664.73
294.959	32707.37
295.026	32779.43
295.093	32801.44
295.16	32852.29
295.226	32898.67
295.293	33028.42
295.36	33087.39
295.427	33181.68
295.494	33275.25
295.561	33355.1
295.628	33481.41
295.695	33583.16
295.762	33646.03
295.829	33725.25
295.896	33837.26
295.963	33923.04
296.03	33998.41
296.096	34075.8
296.163	34159.34
296.23	34275.18
296.297	34372.47
296.364	34429.24
296.431	34500.88
296.498	34549.8
296.564	34690.98
296.631	34757.56
296.698	34756.68
296.765	34885.79
296.832	34894.37
296.899	34904.07
296.965	35024.85
297.032	35001.85
297.099	35111.12
297.166	35184.37
297.233	35223.81
297.299	35245
297.366	35288.43
297.433	35352.6
297.5	35418.39
297.566	35485.3
297.633	35529.51
297.7	35591.03
297.767	35642.39
297.833	35713.54
297.9	35776.84
297.967	35781.5
298.033	35876.66
298.1	36043.09
298.167	36058.81
298.234	36131.5
298.3	36210.2
298.367	36235.35
298.434	36310.09
298.5	36329.08
298.567	36359.07
298.634	36414.4
298.7	36526.84
298.767	36580.67
298.834	36674
298.9	36711.09
298.967	36731.33
299.033	36811.87
299.1	36917.22
299.167	37020.6
299.233	37045.07
299.3	37136.33
299.366	37228.35
299.433	37325.28
299.5	37267.74
299.566	37316.77
299.633	37413.88
299.699	37503.02
299.766	37546.57
299.832	37611.94
299.899	37680.27
299.965	37779.31
300.032	37804.17
300.099	37875.12
300.165	37941.79
300.232	37978.65
300.298	38029.63
300.365	38124.66
300.431	38188
300.498	38203.54
300.564	38260.56
300.631	38350.11
300.697	38455.23
300.763	38503.35
300.83	38535.27
300.896	38639
300.963	38721.85
301.029	38783.6
301.096	38841.36
301.162	38927.91
301.229	38967.11
301.295	38980.42
301.361	39037.6
301.428	39107.43
301.494	39103.89
301.561	39175.83
301.627	39226.84
301.693	39285.13
301.76	39340.46
301.826	39354.74
301.892	39451.77
301.959	39539.23
302.025	39581.35
302.092	39602.2
302.158	39697.66
302.224	39754.52
302.291	39770.65
302.357	39816.07
302.423	39841.34
302.49	39855.72
302.556	39936.39
302.622	39976.13
302.688	40061.26
302.755	40159.77
302.821	40230.42
302.887	40314.37
302.954	40361.46
303.02	40445.58
303.086	40518.66
303.152	40558.07
303.219	40592.38
303.285	40640.84
303.351	40693.53
303.417	40730.31
303.483	40734.3
303.55	40743.43
303.616	40790.15
303.682	40843.5
303.748	40871
303.815	40972.55
303.881	41062.56
303.947	41080.06
304.013	41120.69
304.079	41135.27
304.145	41094.2
304.212	41140.47
304.278	41163.21
304.344	41169.97
304.41	41178.96
304.476	41189.51
304.542	41230.19
304.608	41307.42
304.674	41294.54
304.741	41312.14
304.807	41374.6
304.873	41457.48
304.939	41557.18
305.005	41528.16
305.071	41565.2
305.137	41615.07
305.203	41561.2
305.269	41590.28
305.335	41647.45
305.401	41693.64
305.467	41740.45
305.533	41818.13
305.599	41881.87
305.666	41955.37
305.732	42011.76
305.798	42089.89
305.864	42217.68
305.93	42266.25
305.996	42292.36
306.062	42340.78
306.128	42382.65
306.194	42393.35
306.259	42429.62
306.325	42421.5
306.391	42519.91
306.457	42595.51
306.523	42652.45
306.589	42785
306.655	42802.95
306.721	42799.06
306.787	42801.83
306.853	42883.09
306.919	42870.98
306.985	42895.74
307.051	42923.65
307.117	42946.84
307.183	42968.58
307.248	42914.89
307.314	42973.69
307.38	43038.27
307.446	43094.1
307.512	43087.15
307.578	43132.42
307.644	43154.11
307.709	43208.87
307.775	43239.08
307.841	43269.52
307.907	43318.11
307.973	43295.1
308.039	43338.1
308.104	43407.65
308.17	43452.44
308.236	43444.26
308.302	43498.83
308.368	43503.2
308.433	43540.56
308.499	43572.22
308.565	43584.18
308.631	43629.56
308.696	43588.66
308.762	43571.63
308.828	43620.53
308.894	43616.88
308.959	43596.6
309.025	43607.83
309.091	43637.17
309.156	43644.81
309.222	43679.3
309.288	43668.79
309.354	43645.79
309.419	43675.61
309.485	43659.65
309.551	43713.8
309.616	43714.96
309.682	43740.65
309.748	43754.12
309.813	43770.12
309.879	43773.63
309.945	43764.68
310.01	43786.67
310.076	43846.2
310.141	43887.26
310.207	43850.33
310.273	43904.52
310.338	43961.18
310.404	43939.29
310.469	43931.56
310.535	43928.93
310.601	43893.32
310.666	43957.55
310.732	44040.59
310.797	44038.83
310.863	44050.9
310.928	44073.82
310.994	44128.6
311.059	44154.19
311.125	44181.63
311.191	44259.25
311.256	44272.04
311.322	44328.28
311.387	44304.49
311.453	45172.89
311.518	45194.35
311.584	45243.01
311.649	45299.69
311.715	45292.83
311.78	45347.61
311.846	45360.55
311.911	45421.47
311.976	45471.44
312.042	45439.08
312.107	45411.63
312.173	45421.07
312.238	45439.8
312.304	45459.03
312.369	45458.25
312.434	45469.64
312.5	45490.46
312.565	45409.09
312.631	45456.38
312.696	45464.75
312.761	45506.88
312.827	44676.92
312.892	44772.35
312.958	44787.53
313.023	44806.32
313.088	44849.92
313.154	44841.26
313.219	44839.41
313.284	44842.77
313.35	44878.2
313.415	44902.28
313.48	44921.31
313.546	44975.58
313.611	45035.73
313.676	45023.95
313.741	45015.92
313.807	45071.22
313.872	45109.71
313.937	45169.37
314.003	45242.54
314.068	45287.27
314.133	45343.54
314.198	45341.01
314.264	45305.36
314.329	45315.77
314.394	45324.92
314.459	45346.87
314.525	45439.79
314.59	45471.56
314.655	45468.79
314.72	45504.23
314.785	45542.98
314.851	45571.69
314.916	45532.31
314.981	45512.89
315.046	45525.01
315.111	45539.51
315.176	45530.5
315.242	45564.97
315.307	45592.09
315.372	45547.88
315.437	45546.42
315.502	45537.31
315.567	45603.62
315.632	45575.53
315.698	45613.51
315.763	45636.44
315.828	45643.55
315.893	45651.09
315.958	45651.82
316.023	45636.54
316.088	45594.87
316.153	45536.85
316.218	45526.1
316.283	45495.3
316.348	45444.59
316.413	45453.5
316.479	45405.62
316.544	45296.82
316.609	45203.18
316.674	45076.46
316.739	44956.69
316.804	44842.29
316.869	44719.53
316.934	44584.53
316.999	44476.32
317.064	44289.78
317.129	44127.79
317.194	43969.11
317.259	43782.18
317.324	43599.74
317.389	43420.48
317.454	43251.64
317.518	43095.84
317.583	42974.76
317.648	42847.54
317.713	42699.43
317.778	42457.48
317.843	42320.56
317.908	42156.87
317.973	41971.05
318.038	41834.93
318.103	41671.81
318.168	41516.78
318.233	41364
318.297	41146.48
318.362	40958.37
318.427	40781.83
318.492	40634.93
318.557	40423.77
318.622	40272.52
318.687	40129.34
318.751	39943.52
318.816	39784.04
318.881	39604.2
318.946	39359.16
319.011	39151.86
319.075	38948.05
319.14	38763.34
319.205	38545.74
319.27	38363.29
319.335	38152.68
319.399	37950.31
319.464	37780.9
319.529	37522.23
319.594	37315.18
319.658	37135.71
319.723	36915.32
319.788	36726.71
319.853	36446.93
319.917	36261.67
319.982	35992.66
320.047	35771.49
320.112	35597.21
320.176	35327.56
320.241	35120.95
320.306	34926.13
320.37	34690.51
320.435	34508.38
320.5	34323.85
320.564	34103.43
320.629	33873.84
320.694	33676.49
320.758	33443.66
320.823	33200.21
320.888	33025.09
320.952	32770.37
321.017	32528.11
321.082	32310.03
321.146	32102.39
321.211	31906.94
321.275	31671.68
321.34	31434.24
321.405	31208.44
321.469	30951.5
321.534	30717.4
321.598	30460.07
321.663	30249.44
321.727	30044.68
321.792	29772.68
321.857	29527.05
321.921	29300.32
321.986	29055.87
322.05	28760.08
322.115	28523.86
322.179	28275.68
322.244	27983.86
322.308	27765.15
322.373	27509.49
322.437	27266.82
322.502	27072.68
322.566	26823.24
322.631	26607.43
322.695	26371.84
322.76	26111.32
322.824	25895.05
322.889	25651.72
322.953	25391.53
323.018	25056.87
323.082	24733.21
323.146	24447.38
323.211	24153.58
323.275	23896.63
323.34	23628.06
323.404	23400.98
323.468	23137.7
323.533	22877.42
323.597	22609.76
323.662	22318.25
323.726	22093.24
323.79	21813.77
323.855	21471.9
323.919	21187.49
323.983	20920.57
324.048	20537.01
324.112	20629.3
324.177	19814.17
324.241	18729.08
324.305	17671.9
324.37	16633.11
324.434	15622.07
324.498	15341.33
324.562	15027.52
324.627	14656.53
324.691	14307.01
324.755	13907.43
324.82	13449.16
324.884	12972.13
324.948	12494.02
325.012	11911.19
325.077	11170.77
