Data from 20250701_urea_2M_exp3_MAYP1162681_02-49-49-676.txt Node
Date: Wed Jul 02 02:49:49 BST 2025
User: adleo
Spectrometer: MAYP116268
Trigger mode: 0
Integration Time (sec): 4.000000E0
Scans to average: 1
Electric dark correction enabled: true
Nonlinearity correction enabled: true
Boxcar width: 10
XAxis mode: Wavelengths
Number of Pixels in Spectrum: 2068
>>>>>Begin Spectral Data<<<<<
179.565	3682.58
179.642	3873.43
179.718	4017.26
179.795	4146.52
179.871	4258.6
179.948	4322.51
180.024	4392.75
180.101	4471.31
180.177	4523.14
180.254	4601.63
180.33	4680.69
180.407	4944.68
180.483	5231.86
180.56	5520.3
180.636	5787.4
180.712	5750.97
180.789	5787.66
180.865	5823.76
180.942	5854.35
181.018	5895.89
181.095	5941.11
181.171	5961.11
181.248	5965.24
181.324	6022.5
181.4	6048.22
181.477	6082.29
181.553	6125.21
181.63	6198.6
181.706	6253.13
181.782	6279.7
181.859	6275.04
181.935	6290.17
182.011	6280.23
182.088	6336.64
182.164	6406.24
182.24	6451.68
182.317	6475.29
182.393	6463.77
182.469	6514.03
182.546	6559.17
182.622	6575.63
182.698	6565.02
182.775	6605.74
182.851	6657.5
182.927	6631.33
183.003	6619.24
183.08	6601.33
183.156	6634.03
183.232	6622.4
183.308	6581.69
183.385	6613.27
183.461	6673.92
183.537	6680.74
183.613	6723.43
183.69	6692.84
183.766	6651.66
183.842	6675.87
183.918	6695.65
183.995	6745.3
184.071	6754.53
184.147	6733.54
184.223	6695
184.299	6736.13
184.375	6699.2
184.452	6712.51
184.528	6843.73
184.604	6880.8
184.68	6921.04
184.756	6948.86
184.832	6965.44
184.908	6981.18
184.985	6972.01
185.061	6920.91
185.137	6948.25
185.213	6913.04
185.289	6916.31
185.365	6895.56
185.441	6897.63
185.517	6946.56
185.593	6930.61
185.669	6924.27
185.745	6962.18
185.822	7016.18
185.898	6985.62
185.974	7017.89
186.05	6993.81
186.126	6915.24
186.202	6885.04
186.278	6875
186.354	6838.77
186.43	6859.34
186.506	6859.82
186.582	6861.02
186.658	6884.31
186.734	6817.47
186.81	6820.78
186.886	6832.26
186.962	6873.65
187.038	6852.95
187.114	6821.94
187.19	6849.52
187.266	6814.13
187.341	6813.02
187.417	6789.54
187.493	6788.58
187.569	6795.26
187.645	6775.37
187.721	6736.5
187.797	6769.35
187.873	6778.71
187.949	6757.4
188.025	6732.98
188.101	6737.83
188.176	6759.35
188.252	6745.76
188.328	6773.64
188.404	6772.15
188.48	6755.15
188.556	6727.87
188.632	6728.93
188.707	6736.28
188.783	6725.18
188.859	6711.26
188.935	6670.29
189.011	6698.38
189.086	6677.78
189.162	6648.15
189.238	6643.3
189.314	6635.62
189.39	6617.37
189.465	6598.3
189.541	6660.07
189.617	6614.07
189.693	6599.24
189.768	6608.32
189.844	6687.47
189.92	6661.36
189.996	6692.01
190.071	6727.79
190.147	6729.13
190.223	6757.53
190.298	6728.22
190.374	6687.92
190.45	6732.66
190.526	6768.64
190.601	6746.98
190.677	6752.07
190.753	6847.53
190.828	6860.06
190.904	6906.52
190.98	6956.45
191.055	6992.24
191.131	6960.9
191.207	7028.82
191.282	7061.38
191.358	7029.24
191.433	6977.71
191.509	7017.84
191.585	7006.74
191.66	7011.79
191.736	7038.69
191.811	7009.86
191.887	7065.42
191.963	7136.82
192.038	7152.48
192.114	7152.82
192.189	7167.42
192.265	7159.74
192.34	7085.79
192.416	7074.99
192.491	7064.08
192.567	7067.63
192.642	7077.44
192.718	7079.94
192.793	7037.7
192.869	7025.31
192.944	7032.94
193.02	7063.71
193.095	7077.54
193.171	7100.94
193.246	7098.15
193.322	7085.42
193.397	7091.38
193.473	7041.1
193.548	6984.15
193.624	6998.96
193.699	6995.93
193.775	7050.64
193.85	7052.6
193.925	7085.33
194.001	7092.53
194.076	7070.05
194.152	7041.11
194.227	7011.84
194.302	6976.17
194.378	6990.86
194.453	6978.67
194.529	7025.71
194.604	6976.7
194.679	6960.89
194.755	6894.53
194.83	6936.75
194.905	6932.42
194.981	6954.86
195.056	6938.77
195.131	6961.44
195.207	6959.09
195.282	6922.97
195.357	6853.37
195.433	6904.24
195.508	6864.07
195.583	6886.45
195.659	6929.27
195.734	6947.3
195.809	6945.28
195.884	6975.86
195.96	6973.94
196.035	7025.68
196.11	7007.56
196.185	7042.82
196.261	7053.25
196.336	7156.44
196.411	7107.12
196.486	7122.73
196.561	7101.01
196.637	7124.4
196.712	7180.47
196.787	7188.25
196.862	7242.78
196.937	7281.99
197.013	7301.61
197.088	7330.67
197.163	7399.34
197.238	7459.77
197.313	7456.51
197.388	7498.95
197.464	7604.03
197.539	7645.08
197.614	7623.6
197.689	7661.63
197.764	7720.07
197.839	7790.41
197.914	7765.98
197.989	7840.62
198.065	7889.13
198.14	8061.5
198.215	8149.32
198.29	8182.09
198.365	8221.44
198.44	8256.65
198.515	8346.86
198.59	8401.28
198.665	8492.11
198.74	8522.68
198.815	8524.51
198.89	8604.95
198.965	8706.36
199.04	8686.24
199.115	8735.75
199.19	8877.8
199.265	8889.53
199.34	8918.99
199.415	9027.97
199.49	9102.84
199.565	9131.34
199.64	9209.95
199.715	9199.64
199.79	9220.96
199.865	9245.71
199.94	9245.23
200.015	9347.79
200.09	9366.77
200.165	9388.72
200.24	9409.04
200.315	9536.24
200.39	9584.97
200.464	9605.34
200.539	9607.51
200.614	9657.34
200.689	9735.55
200.764	9757.47
200.839	9817.45
200.914	9831.32
200.989	9795.04
201.063	9848.26
201.138	9796.04
201.213	9798.69
201.288	9734.74
201.363	9752.31
201.438	9750.77
201.512	9806.95
201.587	9751.03
201.662	9764.18
201.737	9795.68
201.812	9824.39
201.886	9719.06
201.961	9746.47
202.036	9707.19
202.111	9701.6
202.186	9607.66
202.26	9551.54
202.335	9478.67
202.41	9460.9
202.485	9408.05
202.559	9339.82
202.634	9246.94
202.709	9279.42
202.784	9210.96
202.858	9209.04
202.933	9144.05
203.008	9114.92
203.082	9048.59
203.157	9039.49
203.232	8891.58
203.306	8821.81
203.381	8713.97
203.456	8632.44
203.53	8557.2
203.605	8491.79
203.68	8411.3
203.754	8391.01
203.829	8341.77
203.904	8270.86
203.978	8223.75
204.053	8235.68
204.127	8189.98
204.202	8184.4
204.277	8119.75
204.351	8098.68
204.426	8073.51
204.5	8047.15
204.575	7938.64
204.65	7967.94
204.724	7938.29
204.799	7968.86
204.873	7948.74
204.948	7943.65
205.022	7908.74
205.097	7881.93
205.171	7922.86
205.246	7951.82
205.32	7949.66
205.395	7948.07
205.469	7918.66
205.544	7937.77
205.618	7879.76
205.693	7921.56
205.767	7878.66
205.842	7950.73
205.916	7933.8
205.991	7899.03
206.065	7922.11
206.14	7971.51
206.214	7956.2
206.289	7932
206.363	7968.7
206.438	7987.71
206.512	8011.28
206.586	8072.59
206.661	8101.52
206.735	8028.02
206.81	8027.4
206.884	8076.78
206.958	8030.28
207.033	8089.94
207.107	8118.2
207.181	8220.88
207.256	8202.5
207.33	8261.9
207.405	8305.33
207.479	8363.02
207.553	8392.16
207.628	8339.41
207.702	8378.32
207.776	8355.86
207.851	8368.94
207.925	8423.09
207.999	8411.78
208.073	8404.33
208.148	8411.21
208.222	8372.61
208.296	8481.09
208.371	8537.48
208.445	8573.09
208.519	8669.79
208.593	8709.2
208.668	8695.96
208.742	8703.76
208.816	8713.14
208.89	8760.81
208.965	8752.23
209.039	8781.17
209.113	8836.13
209.187	8905.53
209.261	8896.29
209.336	8964.4
209.41	9036.13
209.484	9038.54
209.558	9117.45
209.632	9164.95
209.707	9204.81
209.781	9276.01
209.855	9334.14
209.929	9392.73
210.003	9416.75
210.077	9413.91
210.151	9580.81
210.226	9697
210.3	9787.49
210.374	9865.19
210.448	9881.18
210.522	9915.62
210.596	9954.35
210.67	9989.84
210.744	10139.94
210.818	10244.81
210.892	10317.02
210.966	10295.4
211.041	10343.04
211.115	10322.28
211.189	10397.09
211.263	10460.2
211.337	10481.29
211.411	10525.19
211.485	10502.73
211.559	10534.19
211.633	10537.94
211.707	10425.56
211.781	10438.96
211.855	10324.34
211.929	10290.39
212.003	10222.41
212.077	10254.4
212.151	10284.13
212.225	10310.63
212.299	10277.76
212.373	10239.42
212.447	10215.04
212.52	10312.98
212.594	10323.82
212.668	10355.37
212.742	10303.48
212.816	10275.11
212.89	10248.37
212.964	10233.39
213.038	10236.81
213.112	10277.47
213.186	10327.04
213.26	10248.75
213.333	10093.89
213.407	10103.81
213.481	10106.7
213.555	10146.65
213.629	10098.42
213.703	10041.19
213.777	10022.54
213.85	9948.21
213.924	10049.3
213.998	10041.73
214.072	10008.53
214.146	9950
214.219	9942.72
214.293	9919.13
214.367	9902.75
214.441	9928.62
214.515	9884.92
214.588	9793.36
214.662	9660.54
214.736	9577.28
214.81	9590.18
214.883	9607.94
214.957	9558.31
215.031	9502.19
215.105	9406.69
215.178	9348.04
215.252	9306.35
215.326	9209.81
215.4	9117.95
215.473	8938.65
215.547	8850.67
215.621	8777.94
215.694	8769.94
215.768	8665.87
215.842	8599.89
215.915	8532.3
215.989	8419.13
216.063	8355.62
216.136	8334.74
216.21	8308.48
216.284	8320.12
216.357	8292.02
216.431	8248.05
216.504	8243.48
216.578	8295.79
216.652	8309.49
216.725	8280.38
216.799	8286.01
216.873	8269.61
216.946	8279.61
217.02	8236.25
217.093	8207.33
217.167	8110.26
217.24	8029.08
217.314	7989.19
217.387	7941.89
217.461	7903.03
217.535	7924.62
217.608	7860.66
217.682	7832.19
217.755	7854.07
217.829	7794.27
217.902	7781.86
217.976	7760.9
218.049	7711.56
218.123	7636.79
218.196	7634.05
218.27	7595.44
218.343	7521.98
218.417	7516.3
218.49	7489.53
218.563	7532.02
218.637	7535.97
218.71	7609.11
218.784	7635.81
218.857	7671.91
218.931	7697.9
219.004	7704.15
219.077	7719.94
219.151	7740.99
219.224	7733.54
219.298	7718.39
219.371	7766.1
219.444	7722.22
219.518	7730.92
219.591	7749.47
219.665	7856.32
219.738	7867.86
219.811	7848.63
219.885	7889.8
219.958	7919.67
220.031	7929.91
220.105	7953.82
220.178	7954.49
220.251	7928.46
220.325	7953.68
220.398	7971.76
220.471	7993.49
220.544	8032.89
220.618	8010.42
220.691	8041.35
220.764	8058.95
220.838	8096.71
220.911	8078.62
220.984	8167.35
221.057	8206.98
221.131	8228.05
221.204	8129.52
221.277	8200.64
221.35	8326.36
221.424	8323.37
221.497	8331.22
221.57	8352.08
221.643	8387.51
221.716	8444.63
221.79	8450.41
221.863	8461.48
221.936	8469.85
222.009	8481.97
222.082	8503.73
222.155	8507.48
222.229	8572.66
222.302	8600.42
222.375	8597.05
222.448	8641.52
222.521	8646.77
222.594	8651
222.667	8628.93
222.74	8686.28
222.814	8676.84
222.887	8663.36
222.96	8715.72
223.033	8760.4
223.106	8787.05
223.179	8811.47
223.252	8820.52
223.325	8852.62
223.398	8860.13
223.471	8889.1
223.544	8910.22
223.617	8927.17
223.69	8955.95
223.763	8911.51
223.837	8939.81
223.91	8976.11
223.983	8922.31
224.056	8888.48
224.129	8905.9
224.202	8959.63
224.275	8942.69
224.348	8914.77
224.42	8878.77
224.493	8823.51
224.566	8794.91
224.639	8818.79
224.712	8788.79
224.785	8775.02
224.858	8762.6
224.931	8750.37
225.004	8713.8
225.077	8713.31
225.15	8623.77
225.223	8618.38
225.296	8702.46
225.369	8643.08
225.442	8608.95
225.514	8629.3
225.587	8647.92
225.66	8652.06
225.733	8655.96
225.806	8667.56
225.879	8660.29
225.952	8627.91
226.025	8674.64
226.097	8734.16
226.17	8719.44
226.243	8658.76
226.316	8649.76
226.389	8656.64
226.461	8675.56
226.534	8692.06
226.607	8682.05
226.68	8760.62
226.753	8754.22
226.825	8673.31
226.898	8730.24
226.971	8734.48
227.044	8750.41
227.117	8754.93
227.189	8774.53
227.262	8800.96
227.335	8821.32
227.407	8818.05
227.48	8843.93
227.553	8857.8
227.626	8830.01
227.698	8838.67
227.771	8879.23
227.844	8861.13
227.916	8878.17
227.989	8842.36
228.062	8832.69
228.134	8922.58
228.207	8923.3
228.28	8917.82
228.352	8928.89
228.425	8934.95
228.498	8975.49
228.57	8957.44
228.643	9020.96
228.716	9026.64
228.788	9018.65
228.861	9010.36
228.934	9076.46
229.006	9096.19
229.079	9094.17
229.151	9088.63
229.224	9052.97
229.296	9074.15
229.369	9176.1
229.442	9224.41
229.514	9203.82
229.587	9256.96
229.659	9173.75
229.732	9182.81
229.804	9223.19
229.877	9304.49
229.949	9337.97
230.022	9398.09
230.094	9399.43
230.167	9384.45
230.239	9333.04
230.312	9323.89
230.384	9392.34
230.457	9386.41
230.529	9392.91
230.602	9400.28
230.674	9404.08
230.747	9451.97
230.819	9488.57
230.892	9371.36
230.964	9369.05
231.037	9397.44
231.109	9386.41
231.181	9432.05
231.254	9402.73
231.326	9394.11
231.399	9357.5
231.471	9325.18
231.544	9238.34
231.616	9280.46
231.688	9287.39
231.761	9280.22
231.833	9267.85
231.905	9187.09
231.978	9183.86
232.05	9170.38
232.122	9171.25
232.195	9151.17
232.267	9188.87
232.339	9156.61
232.412	9227.47
232.484	9202.52
232.556	9181.25
232.629	9251.72
232.701	9273.78
232.773	9291.06
232.846	9278.69
232.918	9294.25
232.99	9317.12
233.062	9360.03
233.135	9374.67
233.207	9339.42
233.279	9390.53
233.351	9426.55
233.424	9429.63
233.496	9404.88
233.568	9488.68
233.64	9454.44
233.713	9468.36
233.785	9458.29
233.857	9485.26
233.929	9431.05
234.001	9500.04
234.074	9565.94
234.146	9488.1
234.218	9479.53
234.29	9480.58
234.362	9466.29
234.434	9419.23
234.507	9381.77
234.579	9333.28
234.651	9314.6
234.723	9345.95
234.795	9356.35
234.867	9352.3
234.939	9413.08
235.012	9432.19
235.084	9436.48
235.156	9471.72
235.228	9456.89
235.3	9441.63
235.372	9440.71
235.444	9500.61
235.516	9423.77
235.588	9435.04
235.66	9452.03
235.732	9429.83
235.804	9449.82
235.876	9498.59
235.948	9564.96
236.02	9580.95
236.092	9594.52
236.164	9605.45
236.236	9598.95
236.308	9600.3
236.38	9623.37
236.452	9601.64
236.524	9626.49
236.596	9688.95
236.668	9725.41
236.74	9748.19
236.812	9774.63
236.884	9813.65
236.956	9824.06
237.028	9812.69
237.1	9791.94
237.172	9873.4
237.244	9949.46
237.316	10000.28
237.388	9983.33
237.46	9959.24
237.532	10015.74
237.604	10003.18
237.675	10082.81
237.747	10138.12
237.819	10122.9
237.891	10128.73
237.963	10119.24
238.035	10113.08
238.107	9995.27
238.178	10057.87
238.25	10063.46
238.322	10161.61
238.394	10115.71
238.466	10118.69
238.538	10160.64
238.609	10204.57
238.681	10144.82
238.753	10120.73
238.825	10143.28
238.897	10173.91
238.968	10254.24
239.04	10243.11
239.112	10358.05
239.184	10313.14
239.255	10300.23
239.327	10337.65
239.399	10354.89
239.471	10397.09
239.542	10426.81
239.614	10499.31
239.686	10412.15
239.758	10465.77
239.829	10420.46
239.901	10487.77
239.973	10506.22
240.044	10543.27
240.116	10552.47
240.188	10566.78
240.259	10577.14
240.331	10565.09
240.403	10600.16
240.474	10549.32
240.546	10534.82
240.618	10474.63
240.689	10475.65
240.761	10501.67
240.833	10568.79
240.904	10567.78
240.976	10574.76
241.048	10595.67
241.119	10633.22
241.191	10680
241.262	10739.71
241.334	10750.31
241.405	10756.87
241.477	10755.81
241.549	10766.12
241.62	10788
241.692	10834.35
241.763	10900.81
241.835	10919.8
241.906	10934.25
241.978	10909.1
242.049	10981.57
242.121	11048.93
242.192	11122.47
242.264	11089.51
242.335	11040.89
242.407	11094.81
242.478	11096.21
242.55	11116.06
242.621	11101.85
242.693	11105.56
242.764	11098.95
242.836	11095.43
242.907	11111.43
242.979	11146.18
243.05	11161.45
243.122	11187.38
243.193	11185.21
243.264	11112.83
243.336	11123.24
243.407	11165.17
243.479	11240.59
243.55	11254.76
243.622	11264.64
243.693	11260.83
243.764	11322.85
243.836	11307.05
243.907	11290.61
243.978	11295.62
244.05	11319.87
244.121	11271.2
244.192	11309.99
244.264	11269.55
244.335	11285.6
244.407	11245.65
244.478	11261.8
244.549	11254.33
244.62	11212.79
244.692	11210.67
244.763	11255.43
244.834	11241.27
244.906	11216.49
244.977	11238.95
245.048	11286.29
245.119	11260.75
245.191	11227.49
245.262	11167.54
245.333	11246.28
245.405	11260.5
245.476	11295.1
245.547	11312.41
245.618	11365.41
245.689	11370.91
245.761	11398.48
245.832	11405.17
245.903	11455.73
245.974	11480.41
246.045	11499.73
246.117	11584.8
246.188	11569.14
246.259	11554.39
246.33	11569.86
246.401	11585.19
246.473	11543.93
246.544	11534
246.615	11596.8
246.686	11610.25
246.757	11680.27
246.828	11657.37
246.899	11735.03
246.97	11702.98
247.042	11693.82
247.113	11742.7
247.184	11834.82
247.255	11838.19
247.326	11865.33
247.397	11868.61
247.468	11877.91
247.539	11892.13
247.61	11847.88
247.681	11895.01
247.752	11950.92
247.823	11926.88
247.894	11935.02
247.965	11914.73
248.037	11893.09
248.108	11833.37
248.179	11840.12
248.25	11837.27
248.321	11863.59
248.392	11814.37
248.463	11896.31
248.534	11891.05
248.605	11902.14
248.675	11877.12
248.746	11894.86
248.817	11910.04
248.888	11929.9
248.959	11872.59
249.03	11895.44
249.101	11906.58
249.172	11895.01
249.243	11822.28
249.314	11894.05
249.385	11901.62
249.456	11932.6
249.527	11929.62
249.598	11966.1
249.669	11965.23
249.739	11980.75
249.81	11993.05
249.881	11944.41
249.952	11936.08
250.023	11933.76
250.094	11882.28
250.165	11850.08
250.235	11848.73
250.306	11854.8
250.377	11823.47
250.448	11855.23
250.519	11787.28
250.59	11838.08
250.66	11834.32
250.731	11903.63
250.802	11898.66
250.873	11925.08
250.944	11944.79
251.014	11937.27
251.085	12017.87
251.156	12041.78
251.227	12093.79
251.297	12146.91
251.368	12211.3
251.439	12251.51
251.51	12310.22
251.58	12300.29
251.651	12297.98
251.722	12351.15
251.792	12302.27
251.863	12308.34
251.934	12370.19
252.005	12490.79
252.075	12499.9
252.146	12550.32
252.217	12599.2
252.287	12647.11
252.358	12648.03
252.429	12724.92
252.499	12721.06
252.57	12731.76
252.641	12789.56
252.711	12795.44
252.782	12746.9
252.852	12824.99
252.923	12826.44
252.994	12836.13
253.064	12894.45
253.135	12866.78
253.205	12842.44
253.276	12917.73
253.347	12980.35
253.417	12958.27
253.488	12929.49
253.558	12920.57
253.629	12914.74
253.699	12926.45
253.77	12945.88
253.841	12942.22
253.911	12949.64
253.982	12963.38
254.052	12995.92
254.123	12995.19
254.193	12996.4
254.264	13134.56
254.334	13094.16
254.405	13060.27
254.475	13030.82
254.546	13023.68
254.616	13097.63
254.687	13132.43
254.757	13152.44
254.827	13151.14
254.898	13173.46
254.968	13193.32
255.039	13168.59
255.109	13203.54
255.18	13173.5
255.25	13098.98
255.321	13128
255.391	13083.36
255.461	13178.37
255.532	13090.83
255.602	13091.26
255.673	13037.08
255.743	13001.22
255.813	12932.62
255.884	12983.58
255.954	13020.98
256.024	13091.61
256.095	13094.98
256.165	13054.92
256.235	13067.99
256.306	13060.03
256.376	13104.24
256.446	13136.39
256.517	13177.94
256.587	13222.92
256.657	13250.01
256.728	13281.2
256.798	13296
256.868	13298.51
256.938	13265.49
257.009	13314.17
257.079	13339.58
257.149	13430.06
257.219	13368.02
257.29	13407.06
257.36	13348.83
257.43	13380.5
257.5	13314.17
257.571	13301.64
257.641	13338.61
257.711	13309.01
257.781	13337.16
257.852	13356.64
257.922	13297.15
257.992	13295.13
258.062	13292.62
258.132	13328.87
258.202	13332.63
258.273	13346.42
258.343	13417.91
258.413	13399.69
258.483	13407.93
258.553	13370.47
258.623	13350.18
258.693	13377.27
258.764	13441.58
258.834	13523.05
258.904	13534.42
258.974	13523.82
259.044	13534.91
259.114	13564.22
259.184	13595.16
259.254	13607.02
259.324	13552.21
259.394	13602.78
259.464	13682.18
259.535	13682.8
259.605	13677.5
259.675	13670.32
259.745	13703
259.815	13681.65
259.885	13682.18
259.955	13788.66
260.025	13791.16
260.095	13803.84
260.165	13835.08
260.235	13894.03
260.305	13866.65
260.375	13847.08
260.445	13938.43
260.515	14005.63
260.585	14050.85
260.655	14057.89
260.725	14095.78
260.795	14135.26
260.865	14197.78
260.934	14171.27
261.004	14203.76
261.074	14207.81
261.144	14263.1
261.214	14289.23
261.284	14286.67
261.354	14327.79
261.424	14289.62
261.494	14360.33
261.564	14369.4
261.634	14395.57
261.703	14330.11
261.773	14350.6
261.843	14383.19
261.913	14374.22
261.983	14315.84
262.053	14330.83
262.123	14322.88
262.192	14286.1
262.262	14328.28
262.332	14283.11
262.402	14315.46
262.472	14324.04
262.541	14264.45
262.611	14312.22
262.681	14299.31
262.751	14337
262.821	14345.39
262.89	14304.51
262.96	14331.65
263.03	14410.22
263.1	14437.31
263.169	14461.56
263.239	14505.33
263.309	14565.63
263.379	14601.74
263.448	14620.35
263.518	14647.97
263.588	14661.22
263.657	14729.91
263.727	14771.08
263.797	14785.2
263.867	14779.71
263.936	14738.78
264.006	14807.33
264.076	14797.02
264.145	14794.12
264.215	14786.07
264.285	14831.34
264.354	14796.73
264.424	14775.37
264.494	14721.58
264.563	14710.92
264.633	14788.63
264.702	14808.97
264.772	14754.4
264.842	14744.76
264.911	14772.58
264.981	14729.82
265.05	14744.82
265.12	14735.27
265.19	14734.4
265.259	14772.97
265.329	14808.4
265.398	14846.04
265.468	14934.21
265.537	14940.18
265.607	14972.86
265.676	15018.08
265.746	15037.36
265.815	15092.94
265.885	15098.44
265.955	15086.58
266.024	15084.46
266.094	15017.36
266.163	15070.96
266.232	15136.03
266.302	15149.96
266.371	15185.25
266.441	15206.41
266.51	15266.18
266.58	15270.13
266.649	15259.14
266.719	15318.38
266.788	15354.34
266.858	15419.94
266.927	15355.78
266.996	15379.74
267.066	15409.82
267.135	15382.49
267.205	15423.84
267.274	15448.57
267.343	15515.47
267.413	15537.16
267.482	15600.5
267.552	15670.34
267.621	15628.7
267.69	15593.71
267.76	15627.54
267.829	15644.32
267.898	15669.58
267.968	15641.14
268.037	15692.57
268.106	15749.49
268.176	15711.41
268.245	15715.12
268.314	15704.71
268.384	15765.74
268.453	15793.35
268.522	15816.39
268.592	15876.21
268.661	15864.5
268.73	15894.09
268.799	15882.24
268.869	15964.66
268.938	15921.09
269.007	15909.09
269.076	15926.77
269.146	15983.65
269.215	16004.33
269.284	16081.1
269.353	16075.22
269.422	16090.17
269.492	16074.45
269.561	15986.97
269.63	16027.89
269.699	16021.43
269.768	16045.1
269.838	16066.88
269.907	16106.21
269.976	16080.91
270.045	16021.72
270.114	16054.06
270.183	16056.32
270.253	16085.48
270.322	16035.69
270.391	16056.03
270.46	16119.85
270.529	16172.82
270.598	16213.83
270.667	16219.52
270.736	16191.13
270.806	16220.92
270.875	16285.7
270.944	16302.86
271.013	16430.87
271.082	16451.93
271.151	16490.44
271.22	16454.48
271.289	16464.75
271.358	16471.98
271.427	16506.49
271.496	16542.11
271.565	16541.05
271.634	16571.85
271.703	16698.69
271.772	16760.77
271.841	16790.12
271.91	16758.99
271.979	16780.53
272.048	16748.05
272.117	16802.36
272.186	16812.19
272.255	16867.14
272.324	16905.93
272.393	16939.43
272.462	16932.01
272.531	16958.03
272.6	16969.21
272.669	17037.8
272.738	17049.17
272.807	17090.13
272.876	17075
272.945	17214.52
273.013	17279.2
273.082	17341.99
273.151	17247.39
273.22	17286.48
273.289	17302.53
273.358	17387.49
273.427	17391.35
273.496	17444.89
273.564	17480.07
273.633	17527.3
273.702	17526.43
273.771	17536.89
273.84	17570.96
273.909	17618
273.977	17650.96
274.046	17667.3
274.115	17732.21
274.184	17729.32
274.253	17740.36
274.322	17828.94
274.39	17773.23
274.459	17760.55
274.528	17711.93
274.597	17742.96
274.665	17768.41
274.734	17846.14
274.803	17862.14
274.872	17882.77
274.94	17872.79
275.009	18095.6
275.078	18100.28
275.147	18130.11
275.215	18166.54
275.284	18236.42
275.353	18244.99
275.421	18211.84
275.49	18308.8
275.559	18314.53
275.627	18347.3
275.696	18360.56
275.765	18386.48
275.833	18408.51
275.902	18457.47
275.971	18541.22
276.039	18628.98
276.108	18682.61
276.177	18710.37
276.245	18712.35
276.314	18745.65
276.383	18812.29
276.451	18639.41
276.52	18682.01
276.588	18766.39
276.657	18819.54
276.725	18826.53
276.794	18868.36
276.863	18955.2
276.931	18918.96
277	18978.57
277.068	19048.54
277.137	19148.63
277.205	19196.92
277.274	19300.34
277.342	19372.57
277.411	19352.62
277.48	19354.98
277.548	19372
277.617	19414.98
277.685	19439.41
277.754	19490.16
277.822	19511.79
277.89	19607.36
277.959	19640.95
278.027	19619.74
278.096	19628.42
278.164	19762.16
278.233	19778.83
278.301	19784.18
278.37	19841.48
278.438	19841.96
278.507	19889.86
278.575	19850.83
278.643	19875.74
278.712	19852.75
278.78	19845.86
278.849	19927.88
278.917	20005.28
278.985	20034.29
279.054	20084.75
279.122	20178.29
279.191	20229.95
279.259	20260.65
279.327	20236.02
279.396	20329.86
279.464	20366.72
279.532	20425.66
279.601	20448.13
279.669	20484.46
279.737	20574.87
279.806	20629.43
279.874	20705.43
279.942	20745.91
280.011	20781.96
280.079	20847.75
280.147	20944.96
280.215	21003.42
280.284	21041.05
280.352	21041.58
280.42	21107.28
280.488	21122.7
280.557	21131.42
280.625	21189.21
280.693	21238.9
280.761	21287.68
280.83	21280.35
280.898	21357.42
280.966	21348.69
281.034	21289.84
281.102	21284.59
281.171	21308.3
281.239	21383.69
281.307	21398.68
281.375	21413.48
281.443	21534.47
281.512	21569.99
281.58	21635.99
281.648	21624.81
281.716	21655.12
281.784	21687.13
281.852	21705.88
281.92	21744.2
281.989	21828.08
282.057	21810.24
282.125	22000.23
282.193	22039.28
282.261	22075.28
282.329	22102.9
282.397	22151.73
282.465	22204.17
282.533	22301.39
282.601	22310.55
282.67	22278.06
282.738	22301.29
282.806	22371
282.874	22377.27
282.942	22432.04
283.01	22455.81
283.078	22534.96
283.146	22575.69
283.214	22659.3
283.282	22715.85
283.35	22804.38
283.418	22823.91
283.486	22885.95
283.554	22787.03
283.622	22835.1
283.69	22877.86
283.758	22914.94
283.826	22984.61
283.894	23065.95
283.962	23180.68
284.03	23276.3
284.098	23335.99
284.165	23374.32
284.233	23423.84
284.301	23445.06
284.369	23463.29
284.437	23477.61
284.505	23508.32
284.573	23604.05
284.641	23617.45
284.709	23687.83
284.777	23673.12
284.845	23746.82
284.912	23814.58
284.98	23865.07
285.048	23882.33
285.116	23956.95
285.184	24040.39
285.252	24084.38
285.319	24077.05
285.387	24083.66
285.455	24080.14
285.523	24141.78
285.591	24171.87
285.659	24223.72
285.726	24317.55
285.794	24316.39
285.862	24364.49
285.93	24412.91
285.997	24445.91
286.065	24469.36
286.133	24482.09
286.201	24525.89
286.269	24523.96
286.336	24532.02
286.404	24570.37
286.472	24643.36
286.539	24607.67
286.607	24600.77
286.675	24652.3
286.743	24731.18
286.81	24762.21
286.878	24852.15
286.946	24873.38
287.013	24922.53
287.081	24964.75
287.149	24951
287.216	25066.32
287.284	25084.61
287.352	25124.75
287.419	25154.24
287.487	25254.91
287.555	25327.85
287.622	25362.88
287.69	25427.46
287.758	25518.43
287.825	25554.96
287.893	25563.07
287.96	25645.67
288.028	25723.95
288.096	25776.67
288.163	25830.4
288.231	25846.23
288.298	25878.19
288.366	25970.15
288.433	25998.14
288.501	26021.21
288.569	26081.79
288.636	26100.81
288.704	26190.85
288.771	26263.65
288.839	26283.01
288.906	26296.92
288.974	26360.24
289.041	26406.24
289.109	26416.96
289.176	26488.74
289.244	26542.43
289.311	26638.61
289.379	26707.66
289.446	26764.46
289.514	26804.45
289.581	26847.92
289.649	26900.41
289.716	26963.3
289.783	26984.55
289.851	27106.19
289.918	27152.69
289.986	27233.99
290.053	27288.57
290.121	27334.66
290.188	27389.83
290.255	27534.48
290.323	27576.9
290.39	27605.84
290.458	27679.94
290.525	27777.33
290.592	27804.88
290.66	27863.77
290.727	27896.14
290.794	27995.31
290.862	28035.38
290.929	28090.03
290.996	28136.03
291.064	28218.38
291.131	28297.71
291.198	28384.86
291.266	28427.78
291.333	28479.19
291.4	28543.92
291.468	28659.38
291.535	28696.31
291.602	28748.71
291.669	28762.44
291.737	28821.22
291.804	28863.33
291.871	28959.55
291.938	29018.49
292.006	29151.09
292.073	29230.48
292.14	29308.57
292.207	29318.77
292.275	29371.86
292.342	29450.11
292.409	29589.83
292.476	29709.14
292.543	29720.31
292.611	29757.6
292.678	29856.34
292.745	29987.47
292.812	30061.98
292.879	30079.88
292.946	30136.76
293.014	30228.88
293.081	30301.02
293.148	30380.4
293.215	30475.88
293.282	30490.25
293.349	30571.31
293.416	30548.08
293.484	30641.87
293.551	30726.04
293.618	30829.79
293.685	30961.99
293.752	30994.42
293.819	31016.31
293.886	31028.6
293.953	31102.26
294.02	31190.61
294.087	31257.87
294.154	31280.43
294.221	31373.08
294.288	31429.09
294.356	31535.6
294.423	31607.71
294.49	31631.53
294.557	31723.1
294.624	31739.9
294.691	31870.69
294.758	31915.73
294.825	31991.61
294.892	32014.18
294.959	32045.37
295.026	32115.28
295.093	32138.53
295.16	32188.31
295.226	32230.5
295.293	32347.47
295.36	32407.63
295.427	32495
295.494	32573.7
295.561	32653.44
295.628	32771.94
295.695	32863.61
295.762	32921.81
295.829	32999.22
295.896	33105.95
295.963	33187.19
296.03	33278.04
296.096	33330.15
296.163	33410.5
296.23	33513.8
296.297	33612.37
296.364	33666.74
296.431	33734.56
296.498	33768.25
296.564	33896.73
296.631	33969
296.698	33971.14
296.765	34096.75
296.832	34106.55
296.899	34124.2
296.965	34232.67
297.032	34214.19
297.099	34337
297.166	34424.44
297.233	34460.33
297.299	34484.08
297.366	34530.26
297.433	34595.14
297.5	34678.62
297.566	34727.07
297.633	34771.41
297.7	34831.89
297.767	34892.11
297.833	34967.01
297.9	35033.78
297.967	35026.95
298.033	35118.97
298.1	35274.39
298.167	35294.47
298.234	35374.99
298.3	35460.71
298.367	35486.57
298.434	35554.7
298.5	35557.32
298.567	35590.7
298.634	35647.08
298.7	35765.07
298.767	35817.18
298.834	35896.52
298.9	35928.79
298.967	35960.52
299.033	36043.66
299.1	36143.16
299.167	36241.42
299.233	36270.83
299.3	36370.46
299.366	36483.51
299.433	36573.95
299.5	36534.87
299.566	36597.24
299.633	36690.82
299.699	36786.07
299.766	36823.88
299.832	36884.42
299.899	36970.06
299.965	37050.45
300.032	37076.95
300.099	37144.77
300.165	37222.21
300.232	37263.57
300.298	37308.38
300.365	37415.47
300.431	37460.77
300.498	37478.59
300.564	37539.52
300.631	37630.47
300.697	37712.15
300.763	37756.52
300.83	37798.2
300.896	37890.93
300.963	37971.35
301.029	38038.95
301.096	38087.82
301.162	38182.99
301.229	38230.73
301.295	38252.93
301.361	38317.52
301.428	38370.88
301.494	38375.01
301.561	38434.36
301.627	38497.44
301.693	38559.02
301.76	38611.33
301.826	38657.48
301.892	38746.27
301.959	38825.16
302.025	38866.54
302.092	38895.11
302.158	38973.45
302.224	39043.12
302.291	39070.08
302.357	39111.28
302.423	39143.92
302.49	39159.03
302.556	39244.5
302.622	39295.26
302.688	39370.66
302.755	39454.87
302.821	39534.48
302.887	39610.06
302.954	39650.77
303.02	39726.57
303.086	39796.33
303.152	39838.6
303.219	39863.67
303.285	39921.06
303.351	39979.76
303.417	40026.12
303.483	40040.11
303.55	40063.63
303.616	40099.59
303.682	40135.88
303.748	40155.41
303.815	40247.66
303.881	40330.9
303.947	40332.21
304.013	40386.3
304.079	40407.34
304.145	40386.63
304.212	40439.21
304.278	40458.4
304.344	40490.28
304.41	40496.7
304.476	40512.2
304.542	40543.2
304.608	40630.92
304.674	40619.11
304.741	40639.33
304.807	40686.62
304.873	40758.4
304.939	40860.17
305.005	40832.96
305.071	40876.3
305.137	40932.87
305.203	40881.69
305.269	40898.99
305.335	40980.02
305.401	41008.85
305.467	41035.97
305.533	41115.78
305.599	41189.03
305.666	41255.76
305.732	41311.85
305.798	41391.82
305.864	41514.47
305.93	41587.09
305.996	41609.41
306.062	41659.37
306.128	41702.83
306.194	41708.33
306.259	41749.11
306.325	41762.43
306.391	41848.72
306.457	41920.71
306.523	41969.61
306.589	42102.82
306.655	42135.93
306.721	42118.77
306.787	42130.05
306.853	42222.81
306.919	42213.38
306.985	42223.15
307.051	42251.06
307.117	42269
307.183	42275.02
307.248	42226.21
307.314	42271.23
307.38	42318.35
307.446	42379.57
307.512	42385.93
307.578	42437.18
307.644	42459.98
307.709	42497.33
307.775	42531.9
307.841	42560.35
307.907	42605.91
307.973	42580.52
308.039	42618.25
308.104	42680.5
308.17	42714.38
308.236	42704.02
308.302	42756.59
308.368	42746.13
308.433	42778.76
308.499	42801.47
308.565	42824.9
308.631	42882.38
308.696	42858.55
308.762	42861.32
308.828	42887
308.894	42877.13
308.959	42859.44
309.025	42873.34
309.091	42886.28
309.156	42896.83
309.222	42943.33
309.288	42939.1
309.354	42910.41
309.419	42937.69
309.485	42926.51
309.551	42991.68
309.616	42997.17
309.682	43027.43
309.748	43069.24
309.813	43090.16
309.879	43094.43
309.945	43092.34
310.01	43094.82
310.076	43134.17
310.141	43157.85
310.207	43152.16
310.273	43191.5
310.338	43254.57
310.404	43248.01
310.469	43253.12
310.535	43263.86
310.601	43227.82
310.666	43271.4
310.732	43342.6
310.797	43339.44
310.863	43343.86
310.928	43334.23
310.994	43377.72
311.059	43395.91
311.125	43423.34
311.191	43506.14
311.256	43519.95
311.322	43585.52
311.387	43581.63
311.453	44487.73
311.518	44476.93
311.584	44500.86
311.649	44555.49
311.715	44549.46
311.78	44601.55
311.846	44604.61
311.911	44653.75
311.976	44702.05
312.042	44701.07
312.107	44680.94
312.173	44702.14
312.238	44728.55
312.304	44763.63
312.369	44762.76
312.434	44761.15
312.5	44775.55
312.565	44698.78
312.631	44763.72
312.696	44762.65
312.761	44794.94
312.827	43934.23
312.892	44052.37
312.958	44093.68
313.023	44123.07
313.088	44158.05
313.154	44144.18
313.219	44157.71
313.284	44149.82
313.35	44166.22
313.415	44159.22
313.48	44190.35
313.546	44227.28
313.611	44284.39
313.676	44282.64
313.741	44293.69
313.807	44347.5
313.872	44391.68
313.937	44451.61
314.003	44495.27
314.068	44528.16
314.133	44586.31
314.198	44591.08
314.264	44560.56
314.329	44556.86
314.394	44570.82
314.459	44591.5
314.525	44672.07
314.59	44683.26
314.655	44688.13
314.72	44738.21
314.785	44774.01
314.851	44779.22
314.916	44756.2
314.981	44740.58
315.046	44750.9
315.111	44765.74
315.176	44769.78
315.242	44803.55
315.307	44841.32
315.372	44806.23
315.437	44797.28
315.502	44802.83
315.567	44866.49
315.632	44851.31
315.698	44883.18
315.763	44901.14
315.828	44899.3
315.893	44914.34
315.958	44945.77
316.023	44936.81
316.088	44899.83
316.153	44865.09
316.218	44870.2
316.283	44831.43
316.348	44792.85
316.413	44801.12
316.479	44758.8
316.544	44641.85
316.609	44550.42
316.674	44410.6
316.739	44287.94
316.804	44191.72
316.869	44056.83
316.934	43905.03
316.999	43789.7
317.064	43608.41
317.129	43442.58
317.194	43310.63
317.259	43125.65
317.324	42920.93
317.389	42743.16
317.454	42573.44
317.518	42430.54
317.583	42302.74
317.648	42179.78
317.713	42023.23
317.778	41779.45
317.843	41642.15
317.908	41477.19
317.973	41300.67
318.038	41166.62
318.103	41008.15
318.168	40848.14
318.233	40700.15
318.297	40488.18
318.362	40313.66
318.427	40129.38
318.492	39996.41
318.557	39781.09
318.622	39641.58
318.687	39514.99
318.751	39330.32
318.816	39161.65
318.881	38978.57
318.946	38738.61
319.011	38525.19
319.075	38319.22
319.14	38142.86
319.205	37921.6
319.27	37749.58
319.335	37522.45
319.399	37309.98
319.464	37142.11
319.529	36888.51
319.594	36677.28
319.658	36501.59
319.723	36281.34
319.788	36109.66
319.853	35836.72
319.917	35659.69
319.982	35399.51
320.047	35181.48
320.112	35005.99
320.176	34750.14
320.241	34539.26
320.306	34342.57
320.37	34122.16
320.435	33938.63
320.5	33749.99
320.564	33527.87
320.629	33302.17
320.694	33104.69
320.758	32888.47
320.823	32645.73
320.888	32472.75
320.952	32222.17
321.017	31986.97
321.082	31773.4
321.146	31563.64
321.211	31353.47
321.275	31114.72
321.34	30870.17
321.405	30627.02
321.469	30366.21
321.534	30131.99
321.598	29878.31
321.663	29685.82
321.727	29480.45
321.792	29209.42
321.857	28955.57
321.921	28722.1
321.986	28468.69
322.05	28179.76
322.115	27946.02
322.179	27708.21
322.244	27416.87
322.308	27190.55
322.373	26936.99
322.437	26687.95
322.502	26479.58
322.566	26234.37
322.631	26015.75
322.695	25781.95
322.76	25534.59
322.824	25320.99
322.889	25073.57
322.953	24822.54
323.018	24494.17
323.082	24171.11
323.146	23895.76
323.211	23619.29
323.275	23359.03
323.34	23104.82
323.404	22888.09
323.468	22621.38
323.533	22368.64
323.597	22114.21
323.662	21840.1
323.726	21614.15
323.79	21342.81
323.855	21015.65
323.919	20745.53
323.983	20477.48
324.048	20085.59
324.112	20248.03
324.177	19448.02
324.241	18393.19
324.305	17350.58
324.37	16329.18
324.434	15344.99
324.498	15072.71
324.562	14768.04
324.627	14423.68
324.691	14079.64
324.755	13685.95
324.82	13251.25
324.884	12780.75
324.948	12308.56
325.012	11740.29
325.077	11032.27
