Data from 20250701_urea_2M_exp3_MAYP1162681_14-19-49-296.txt Node
Date: Tue Jul 01 14:19:49 BST 2025
User: adleo
Spectrometer: MAYP116268
Trigger mode: 0
Integration Time (sec): 4.000000E0
Scans to average: 1
Electric dark correction enabled: true
Nonlinearity correction enabled: true
Boxcar width: 10
XAxis mode: Wavelengths
Number of Pixels in Spectrum: 2068
>>>>>Begin Spectral Data<<<<<
179.565	4290.32
179.642	4518.95
179.718	4700.61
179.795	4860.14
179.871	4996.92
179.948	5069.46
180.024	5148.23
180.101	5241.16
180.177	5300.8
180.254	5396.69
180.33	5485.75
180.407	5799.9
180.483	6132.39
180.56	6469.36
180.636	6782.43
180.712	6743.79
180.789	6784.72
180.865	6833.15
180.942	6868.88
181.018	6911.49
181.095	6960.77
181.171	6975.56
181.248	6969.7
181.324	7022.24
181.4	7047.14
181.477	7084.43
181.553	7138.8
181.63	7218.43
181.706	7277.41
181.782	7303.44
181.859	7296.86
181.935	7316.76
182.011	7303.25
182.088	7367.57
182.164	7443.66
182.24	7496.28
182.317	7526.79
182.393	7519.92
182.469	7577.61
182.546	7629.82
182.622	7641.02
182.698	7629.05
182.775	7678.42
182.851	7739.72
182.927	7715.24
183.003	7704.86
183.08	7684.72
183.156	7716.31
183.232	7706.45
183.308	7663.22
183.385	7700.18
183.461	7762.45
183.537	7771.5
183.613	7821.84
183.69	7790.87
183.766	7751.9
183.842	7776.04
183.918	7800.57
183.995	7848.99
184.071	7860.34
184.147	7841.82
184.223	7803.38
184.299	7840.42
184.375	7799.4
184.452	7819.08
184.528	7960.51
184.604	7997.62
184.68	8036.67
184.756	8058.12
184.832	8075.1
184.908	8093.51
184.985	8088.27
185.061	8030.18
185.137	8058.42
185.213	8014.95
185.289	8020.38
185.365	7991.97
185.441	7989.03
185.517	8034.17
185.593	8020.13
185.669	8011.95
185.745	8050.67
185.822	8116.96
185.898	8089.16
185.974	8125.7
186.05	8098.22
186.126	8012.99
186.202	7985.96
186.278	7978.17
186.354	7940.22
186.43	7962.55
186.506	7957.64
186.582	7954.95
186.658	7982.06
186.734	7904.22
186.81	7913.26
186.886	7920.52
186.962	7967.74
187.038	7950.57
187.114	7922.85
187.19	7954.41
187.266	7917.81
187.341	7921.42
187.417	7888.09
187.493	7889.73
187.569	7899.69
187.645	7879.15
187.721	7836.48
187.797	7867.83
187.873	7881.59
187.949	7870.2
188.025	7851.96
188.101	7863.31
188.176	7888.6
188.252	7876.29
188.328	7907.77
188.404	7903.59
188.48	7885.32
188.556	7858.48
188.632	7859.29
188.707	7860.5
188.783	7844.38
188.859	7824
188.935	7779.17
189.011	7813.07
189.086	7784.66
189.162	7754.6
189.238	7746.28
189.314	7739.02
189.39	7707.42
189.465	7684.72
189.541	7744.46
189.617	7686.76
189.693	7667.34
189.768	7674.36
189.844	7763.57
189.92	7734.4
189.996	7771.86
190.071	7815.48
190.147	7811.49
190.223	7849.02
190.298	7826.12
190.374	7777.69
190.45	7821.78
190.526	7853.47
190.601	7833.42
190.677	7839.81
190.753	7946.12
190.828	7957.28
190.904	8010.39
190.98	8076.24
191.055	8109.91
191.131	8079.12
191.207	8157.42
191.282	8189.87
191.358	8159.86
191.433	8104.37
191.509	8160.03
191.585	8151.04
191.66	8152.96
191.736	8185.14
191.811	8149.68
191.887	8203.68
191.963	8288.77
192.038	8306.33
192.114	8302.72
192.189	8312.87
192.265	8306.28
192.34	8222.04
192.416	8220.31
192.491	8205.39
192.567	8218.05
192.642	8227
192.718	8230.27
192.793	8178.99
192.869	8171.2
192.944	8173.46
193.02	8203.39
193.095	8212.39
193.171	8232.54
193.246	8234.66
193.322	8223.79
193.397	8224.51
193.473	8176.63
193.548	8113.79
193.624	8137.9
193.699	8140.64
193.775	8202.2
193.85	8205.47
193.925	8239.34
194.001	8237.71
194.076	8205.96
194.152	8164.47
194.227	8138.39
194.302	8093.73
194.378	8114.5
194.453	8099.17
194.529	8144.34
194.604	8085.07
194.679	8057.99
194.755	7985.38
194.83	8029.47
194.905	8017.59
194.981	8052.71
195.056	8026.75
195.131	8055.12
195.207	8046.89
195.282	8005.58
195.357	7934.5
195.433	7995.4
195.508	7950.03
195.583	7976.87
195.659	8032.15
195.734	8054.67
195.809	8051.98
195.884	8090.87
195.96	8095.87
196.035	8152.53
196.11	8140.65
196.185	8187.4
196.261	8205.68
196.336	8326.09
196.411	8271.6
196.486	8295.42
196.561	8269.1
196.637	8297.57
196.712	8355.76
196.787	8366.26
196.862	8425.66
196.937	8458.61
197.013	8481.24
197.088	8517.51
197.163	8597.28
197.238	8667.5
197.313	8671.4
197.388	8720.19
197.464	8831.35
197.539	8869.23
197.614	8847
197.689	8894.65
197.764	8958.54
197.839	9032.91
197.914	9006.14
197.989	9083.89
198.065	9131.78
198.14	9321.31
198.215	9420.58
198.29	9466.1
198.365	9519.16
198.44	9561.1
198.515	9667.77
198.59	9714.97
198.665	9818.46
198.74	9849.63
198.815	9851.66
198.89	9931.46
198.965	10050.01
199.04	10035.37
199.115	10094.22
199.19	10250.12
199.265	10253.59
199.34	10286.35
199.415	10411.49
199.49	10491.78
199.565	10526.51
199.64	10624.07
199.715	10611.83
199.79	10638.57
199.865	10659.67
199.94	10652.78
200.015	10767.9
200.09	10784.28
200.165	10811.45
200.24	10830.01
200.315	10974.17
200.39	11026.79
200.464	11051.32
200.539	11044.19
200.614	11102.15
200.689	11185.18
200.764	11216.03
200.839	11292.24
200.914	11313.11
200.989	11270.79
201.063	11325.97
201.138	11265.28
201.213	11255.2
201.288	11184.41
201.363	11198.63
201.438	11199.21
201.512	11255.67
201.587	11199.77
201.662	11215
201.737	11259.86
201.812	11291.48
201.886	11168.33
201.961	11204.19
202.036	11153.69
202.111	11152.83
202.186	11044.64
202.26	10978.37
202.335	10893.41
202.41	10868.3
202.485	10800.33
202.559	10732.1
202.634	10631.68
202.709	10669.59
202.784	10599
202.858	10597.17
202.933	10533.53
203.008	10499.99
203.082	10426
203.157	10412.6
203.232	10253.97
203.306	10166.03
203.381	10040.14
203.456	9956.03
203.53	9871.89
203.605	9802.7
203.68	9706.92
203.754	9684.11
203.829	9627.03
203.904	9548.3
203.978	9502.87
204.053	9523.68
204.127	9471.19
204.202	9466.62
204.277	9396.32
204.351	9374.41
204.426	9349.94
204.5	9314.21
204.575	9184.93
204.65	9228.81
204.724	9194.46
204.799	9224.1
204.873	9219.96
204.948	9217.79
205.022	9175.34
205.097	9141.71
205.171	9197.08
205.246	9231.32
205.32	9223.43
205.395	9227.38
205.469	9198.51
205.544	9217.63
205.618	9146.66
205.693	9193.56
205.767	9144.98
205.842	9228.09
205.916	9208.69
205.991	9170.08
206.065	9188.76
206.14	9253.27
206.214	9226.68
206.289	9202.69
206.363	9247.28
206.438	9251.76
206.512	9282.91
206.586	9353.25
206.661	9389.23
206.735	9299.14
206.81	9304
206.884	9364.51
206.958	9312.95
207.033	9378.94
207.107	9410.93
207.181	9535
207.256	9511.4
207.33	9580.74
207.405	9625.02
207.479	9689.21
207.553	9717.43
207.628	9663.47
207.702	9707.14
207.776	9684.8
207.851	9699.44
207.925	9752.67
207.999	9740.87
208.073	9736.82
208.148	9745.69
208.222	9694.05
208.296	9822.82
208.371	9885.18
208.445	9928.14
208.519	10032.01
208.593	10070.35
208.668	10053.68
208.742	10064.38
208.816	10070.84
208.89	10127.06
208.965	10122.44
209.039	10160.84
209.113	10222.74
209.187	10295
209.261	10276.94
209.336	10351.8
209.41	10430.43
209.484	10438.43
209.558	10517.68
209.632	10556.17
209.707	10600.4
209.781	10682.16
209.855	10733.05
209.929	10791.9
210.003	10808.23
210.077	10809.05
210.151	10985.85
210.226	11108.6
210.3	11205.82
210.374	11288.98
210.448	11302.23
210.522	11341.85
210.596	11372.11
210.67	11401.9
210.744	11577.76
210.818	11701.01
210.892	11776.63
210.966	11755.42
211.041	11816.1
211.115	11804.83
211.189	11901.56
211.263	11962.48
211.337	11986.14
211.411	12036.32
211.485	12018.24
211.559	12065.28
211.633	12073.95
211.707	11959.08
211.781	11987.91
211.855	11850.64
211.929	11820.86
212.003	11741.11
212.077	11772.21
212.151	11814.67
212.225	11853.62
212.299	11813.22
212.373	11770.81
212.447	11752.3
212.52	11851.11
212.594	11854.24
212.668	11900.89
212.742	11840.21
212.816	11816.74
212.89	11789.79
212.964	11777.69
213.038	11780.15
213.112	11824.11
213.186	11873.95
213.26	11785.92
213.333	11606.49
213.407	11622.59
213.481	11624.18
213.555	11670.38
213.629	11617.5
213.703	11553.45
213.777	11533.59
213.85	11451.26
213.924	11558.17
213.998	11540.77
214.072	11507.22
214.146	11441
214.219	11408.18
214.293	11381.91
214.367	11370.25
214.441	11396.81
214.515	11345.14
214.588	11238.97
214.662	11093
214.736	11000.97
214.81	11013.59
214.883	11034.83
214.957	10974.75
215.031	10912.23
215.105	10804.26
215.178	10729.72
215.252	10680.57
215.326	10565.99
215.4	10469.23
215.473	10274.26
215.547	10184.97
215.621	10099.81
215.694	10094.66
215.768	9987.62
215.842	9912.72
215.915	9836.2
215.989	9710.22
216.063	9648.98
216.136	9630.58
216.21	9599.91
216.284	9615.37
216.357	9583.4
216.431	9537.11
216.504	9534.32
216.578	9599.45
216.652	9612.82
216.725	9589.71
216.799	9597.41
216.873	9581.43
216.946	9591.78
217.02	9541.92
217.093	9506.91
217.167	9406.95
217.24	9319.82
217.314	9282.61
217.387	9233.33
217.461	9181.96
217.535	9206.75
217.608	9136.56
217.682	9100.01
217.755	9116.52
217.829	9050.26
217.902	9034.23
217.976	9017.52
218.049	8962.31
218.123	8876.67
218.196	8871.91
218.27	8830.36
218.343	8753.41
218.417	8747.05
218.49	8723.85
218.563	8779.97
218.637	8788.06
218.71	8866.1
218.784	8894.94
218.857	8929.07
218.931	8951.25
219.004	8965.16
219.077	8983.99
219.151	9005.65
219.224	8995.88
219.298	8990
219.371	9043.93
219.444	8998.51
219.518	9005.92
219.591	9025.89
219.665	9143.24
219.738	9165.57
219.811	9147.29
219.885	9198.95
219.958	9230.01
220.031	9236.45
220.105	9256.39
220.178	9264.72
220.251	9239.2
220.325	9264.1
220.398	9290.15
220.471	9314.31
220.544	9352.88
220.618	9322.78
220.691	9352.15
220.764	9377.14
220.838	9409.26
220.911	9390.57
220.984	9495.04
221.057	9536.55
221.131	9566.59
221.204	9460.56
221.277	9535.56
221.35	9679.32
221.424	9667.23
221.497	9683.36
221.57	9707.53
221.643	9740.86
221.716	9796.84
221.79	9803.34
221.863	9814.28
221.936	9822.51
222.009	9844.85
222.082	9881.56
222.155	9894.81
222.229	9970.25
222.302	9995.87
222.375	10005.8
222.448	10051.03
222.521	10057.24
222.594	10055.99
222.667	10032.21
222.74	10087.4
222.814	10083.79
222.887	10060.41
222.96	10124.73
223.033	10172.42
223.106	10202.57
223.179	10238.04
223.252	10247.67
223.325	10280.19
223.398	10295.99
223.471	10325.76
223.544	10349.46
223.617	10359.19
223.69	10393.63
223.763	10348.97
223.837	10381.39
223.91	10412.32
223.983	10360.44
224.056	10326.14
224.129	10356.54
224.202	10416.11
224.275	10407.01
224.348	10369.14
224.42	10330.45
224.493	10263.2
224.566	10244.27
224.639	10267.39
224.712	10239.63
224.785	10229.8
224.858	10222.19
224.931	10207.59
225.004	10165.93
225.077	10159.23
225.15	10061.27
225.223	10057.75
225.296	10152.5
225.369	10096.14
225.442	10063.33
225.514	10083.31
225.587	10109.28
225.66	10119.15
225.733	10124.69
225.806	10143.34
225.879	10137.61
225.952	10113.72
226.025	10172.44
226.097	10226.46
226.17	10226.12
226.243	10155.75
226.316	10153.39
226.389	10164.81
226.461	10190.68
226.534	10220.79
226.607	10215.34
226.68	10320.05
226.753	10314.03
226.825	10220.54
226.898	10288.03
226.971	10293.09
227.044	10321.12
227.117	10326.62
227.189	10340.59
227.262	10380.1
227.335	10396.58
227.407	10400.48
227.48	10436.51
227.553	10452.32
227.626	10432.75
227.698	10436.84
227.771	10486.88
227.844	10461.64
227.916	10480.29
227.989	10439.24
228.062	10434.32
228.134	10542.26
228.207	10540.33
228.28	10538.07
228.352	10558.5
228.425	10566.93
228.498	10620.51
228.57	10596.76
228.643	10665.53
228.716	10672.76
228.788	10667.22
228.861	10668.42
228.934	10742.67
229.006	10756.06
229.079	10761.65
229.151	10757.7
229.224	10726.92
229.296	10756.21
229.369	10877.42
229.442	10939.73
229.514	10925.76
229.587	10978.62
229.659	10888.6
229.732	10899.3
229.804	10945.55
229.877	11033.42
229.949	11068.79
230.022	11131.16
230.094	11135.06
230.167	11122.05
230.239	11072.52
230.312	11054.01
230.384	11133.49
230.457	11125.25
230.529	11129.92
230.602	11133.54
230.674	11145.49
230.747	11193.76
230.819	11232.37
230.892	11101.14
230.964	11095.94
231.037	11125.08
231.109	11118.05
231.181	11165.22
231.254	11136.21
231.326	11121.8
231.399	11093.02
231.471	11059.96
231.544	10969.35
231.616	11021.73
231.688	11030.79
231.761	11020.82
231.833	11012.38
231.905	10919.46
231.978	10921.53
232.05	10914.21
232.122	10922.4
232.195	10894.79
232.267	10931.95
232.339	10900.33
232.412	10975.64
232.484	10954.14
232.556	10931.36
232.629	11016.58
232.701	11045.11
232.773	11057.39
232.846	11048.43
232.918	11066.46
232.99	11089.59
233.062	11145.55
233.135	11159.43
233.207	11123.81
233.279	11176.04
233.351	11221.62
233.424	11226.44
233.496	11202.3
233.568	11293.67
233.64	11257.68
233.713	11285
233.785	11286.4
233.857	11313.63
233.929	11261.83
234.001	11335.91
234.074	11414.55
234.146	11331.31
234.218	11327.5
234.29	11334.01
234.362	11327.07
234.434	11274.39
234.507	11246.92
234.579	11185.52
234.651	11172.7
234.723	11209.09
234.795	11231.93
234.867	11219.3
234.939	11288.46
235.012	11319.25
235.084	11328.27
235.156	11371.26
235.228	11353.47
235.3	11339.83
235.372	11354
235.444	11415.83
235.516	11327
235.588	11339.77
235.66	11365.6
235.732	11337.98
235.804	11558.32
235.876	11614.46
235.948	11692.06
236.02	11707.43
236.092	11734.76
236.164	11750.9
236.236	11752.64
236.308	11755.14
236.38	11795.77
236.452	11777.07
236.524	11799.15
236.596	11869.38
236.668	11903.65
236.74	11929.97
236.812	11965.3
236.884	12009.26
236.956	12029.84
237.028	12033.5
237.1	12018.95
237.172	12091.16
237.244	12185.19
237.316	12048.39
237.388	12034.46
237.46	12006.31
237.532	12081.5
237.604	12069.02
237.675	12156.17
237.747	12208.42
237.819	12205.1
237.891	12217.1
237.963	12214.26
238.035	12218.93
238.107	12100.88
238.178	12172.37
238.25	12183.36
238.322	12290.18
238.394	12239.33
238.466	12248.29
238.538	12300.3
238.609	12346.96
238.681	12299.24
238.753	12279.71
238.825	12312.16
238.897	12348.45
238.968	12451.42
239.04	12429.82
239.112	12564.06
239.184	12524.39
239.255	12530.27
239.327	12576.45
239.399	12609.66
239.471	12664.37
239.542	12702.98
239.614	12789.07
239.686	12709.48
239.758	12779.86
239.829	12743.23
239.901	12823.39
239.973	12850.96
240.044	12893
240.116	12909.05
240.188	12931.37
240.259	12956.87
240.331	12954.55
240.403	13001.89
240.474	12945.73
240.546	12943.13
240.618	12877.09
240.689	12880.03
240.761	12905.96
240.833	12982.18
240.904	12977.79
240.976	12984.92
241.048	13004.16
241.119	13052.32
241.191	13108.38
241.262	13183
241.334	13193.27
241.405	13202.72
241.477	13209.13
241.549	13228.6
241.62	13269.24
241.692	13327.14
241.763	13395.88
241.835	13424.95
241.906	13457.87
241.978	13436.08
242.049	13522.37
242.121	13603.84
242.192	13690.08
242.264	13664.1
242.335	13614.2
242.407	13674.03
242.478	13686.27
242.55	13721.46
242.621	13703.19
242.693	13711.63
242.764	13702.23
242.836	13709.65
242.907	13749.04
242.979	13789.44
243.05	13815.51
243.122	13843.96
243.193	13842.12
243.264	13770.01
243.336	13778.44
243.407	13822.26
243.479	13919.45
243.55	13938.92
243.622	13959.65
243.693	13964.04
243.764	14033.79
243.836	14020.34
243.907	14015.04
243.978	14022.32
244.05	14057.12
244.121	14010.17
244.192	14062.38
244.264	14014.41
244.335	14037.65
244.407	13990.69
244.478	14011.81
244.549	14011.38
244.62	13973.63
244.692	13984.09
244.763	14039.24
244.834	14032.78
244.906	14006.03
244.977	14025.98
245.048	14088.79
245.119	14069.07
245.191	14041.5
245.262	13979.75
245.333	14066.66
245.405	14090.62
245.476	14136.95
245.547	14161.92
245.618	14228.88
245.689	14244.4
245.761	14284.5
245.832	14294.39
245.903	14354.07
245.974	14393.01
246.045	14410.13
246.117	14503.6
246.188	14489.57
246.259	14480.89
246.33	14506.25
246.401	14531.65
246.473	14509.24
246.544	14498.25
246.615	14573.01
246.686	14582.46
246.757	14679.88
246.828	14666
246.899	14750.06
246.97	14718.49
247.042	14713.28
247.113	14768.24
247.184	14872.06
247.255	14888.59
247.326	14922.57
247.397	14930.05
247.468	14952.12
247.539	14973.04
247.61	14930.96
247.681	14989.29
247.752	15044.92
247.823	15024.29
247.894	15039.86
247.965	15009.68
248.037	15001.44
248.108	14939.45
248.179	14958.15
248.25	14948.37
248.321	14975.17
248.392	14931.21
248.463	15026.03
248.534	15025.26
248.605	15052.68
248.675	15027.52
248.746	15047.96
248.817	15067.77
248.888	15098.57
248.959	15037.93
249.03	15068.01
249.101	15088.64
249.172	15077.07
249.243	14997.34
249.314	15069.94
249.385	15085.36
249.456	15119.97
249.527	15112.46
249.598	15144.99
249.669	15147.89
249.739	15166.06
249.81	15191.8
249.881	15138.87
249.952	15134.44
250.023	15130.1
250.094	15080.31
250.165	15040.78
250.235	15034.23
250.306	15036.59
250.377	15001.4
250.448	15025.75
250.519	14960.91
250.59	15021.98
250.66	15021.16
250.731	15110
250.802	15112.27
250.873	15134.83
250.944	15168.14
251.014	15166.4
251.085	15271.62
251.156	15310.52
251.227	15374.19
251.297	15441.04
251.368	15504.62
251.439	15553.88
251.51	15617.7
251.58	15593.16
251.651	15597.93
251.722	15667
251.792	15620.97
251.863	15625.21
251.934	15706.09
252.005	15835.66
252.075	15845.44
252.146	15902.61
252.217	15964.16
252.287	16016.07
252.358	16025.76
252.429	16110.97
252.499	16103.64
252.57	16116.94
252.641	16174.83
252.711	16190.64
252.782	16142.39
252.852	16233.29
252.923	16237.68
252.994	16261.87
253.064	16336.15
253.135	16317.59
253.205	16293.16
253.276	16388.3
253.347	16471.01
253.417	16449.18
253.488	16426.58
253.558	16418
253.629	16422.14
253.699	16437.32
253.77	16468.12
253.841	16461.13
253.911	16470
253.982	16496.99
254.052	16530.2
254.123	16539.4
254.193	16536.61
254.264	16686.01
254.334	16651.6
254.405	16622.58
254.475	16586.82
254.546	16598.97
254.616	16679.51
254.687	16721.29
254.757	16740.23
254.827	16738.06
254.898	16764.04
254.968	16780.91
255.039	16763.75
255.109	16815.08
255.18	16775.99
255.25	16702.98
255.321	16746.79
255.391	16707.51
255.461	16801.73
255.532	16716.91
255.602	16713.35
255.673	16662.06
255.743	16629.92
255.813	16548.51
255.884	16609.05
255.954	16660.57
256.024	16736.43
256.095	16736.43
256.165	16699.27
256.235	16737.48
256.306	16723.94
256.376	16783.84
256.446	16830.93
256.517	16882.07
256.587	16928.14
256.657	16964.29
256.728	16991.76
256.798	16998.8
256.868	16996.82
256.938	16973.45
257.009	17037.93
257.079	17074.32
257.149	17191.81
257.219	17128.54
257.29	17185.99
257.36	17120.35
257.43	17163.38
257.5	17084.06
257.571	17080.97
257.641	17125.46
257.711	17081.99
257.781	17125.8
257.852	17146.09
257.922	17077.75
257.992	17077.17
258.062	17073.94
258.132	17128.4
258.202	17147.77
258.273	17179.72
258.343	17264.64
258.413	17256.21
258.483	17256.3
258.553	17225.27
258.623	17195.05
258.693	17240.64
258.764	17316.88
258.834	17398.62
258.904	17418.86
258.974	17423.06
259.044	17429.47
259.114	17464.79
259.184	17503.25
259.254	17520.31
259.324	17468.94
259.394	17530.92
259.464	17622.67
259.535	17641.8
259.605	17639.78
259.675	17632.41
259.745	17670.14
259.815	17652.5
259.885	17663.15
259.955	17793.75
260.025	17791.63
260.095	17821.84
260.165	17852.45
260.235	17929.89
260.305	17915.38
260.375	17885.07
260.445	17986.61
260.515	18069.02
260.585	18133.21
260.655	18147.14
260.725	18196.63
260.795	18241.2
260.865	18321.1
260.934	18294.12
261.004	18313.3
261.074	18317.1
261.144	18387.27
261.214	18432.96
261.284	18438.36
261.354	18479.22
261.424	18430.45
261.494	18510.4
261.564	18506.31
261.634	18527.37
261.703	18450.79
261.773	18479.85
261.843	18521.1
261.913	18506.36
261.983	18443.81
262.053	18457.59
262.123	18451.08
262.192	18397.11
262.262	18441.73
262.332	18384.92
262.402	18422.94
262.472	18443.42
262.541	18375.32
262.611	18418.55
262.681	18391.13
262.751	18427.7
262.821	18425.3
262.89	18384
262.96	18411.27
263.03	18502.06
263.1	18524.23
263.169	18547.94
263.239	18589.91
263.309	18650.73
263.379	18690.2
263.448	18720.61
263.518	18746.82
263.588	18773.04
263.657	18859.63
263.727	18899.87
263.797	18909.9
263.867	18906.76
263.936	18859.83
264.006	18933.71
264.076	18931.3
264.145	18926.14
264.215	18909.18
264.285	18964.74
264.354	18927.3
264.424	18912.89
264.494	18849.66
264.563	18858.05
264.633	18946.62
264.702	18970.62
264.772	18918.72
264.842	18914.09
264.911	18944.74
264.981	18905.08
265.05	18918.82
265.12	18919.11
265.19	18939.44
265.259	19002.52
265.329	19038.57
265.398	19077.84
265.468	19183.24
265.537	19186.95
265.607	19230.85
265.676	19286.8
265.746	19317.73
265.815	19388.62
265.885	19399.75
265.955	19395.27
266.024	19389.73
266.094	19318.07
266.163	19387.61
266.232	19466.02
266.302	19474.31
266.371	19506.06
266.441	19526.74
266.51	19584.18
266.58	19583.6
266.649	19556.52
266.719	19606.49
266.788	19643.07
266.858	19721.38
266.927	19650.11
266.996	19675.02
267.066	19702.1
267.135	19677.43
267.205	19714.97
267.274	19737.91
267.343	19797.52
267.413	19811.35
267.482	19884.8
267.552	19961.71
267.621	19907.35
267.69	19854.43
267.76	19884.6
267.829	19914
267.898	19942.48
267.968	19913.03
268.037	19959.54
268.106	20030
268.176	19990.43
268.245	19992.6
268.314	19981.13
268.384	20046.76
268.453	20064.26
268.522	20090.33
268.592	20152.64
268.661	20140.79
268.73	20169.84
268.799	20150.28
268.869	20242.37
268.938	20186.57
269.007	20175.43
269.076	20206.85
269.146	20269.55
269.215	20307.05
269.284	20389.65
269.353	20384.64
269.422	20395.29
269.492	20395.73
269.561	20293.56
269.63	20334.28
269.699	20337.17
269.768	20360.98
269.838	20381.12
269.907	20437.13
269.976	20410.33
270.045	20352.65
270.114	20390.67
270.183	20400.17
270.253	20443.97
270.322	20399.59
270.391	20437.32
270.46	20507.78
270.529	20552.94
270.598	20601.52
270.667	20607.5
270.736	20574
270.806	20618.19
270.875	20689.95
270.944	20701.09
271.013	20850.15
271.082	20882.54
271.151	20925.39
271.22	20888.81
271.289	20903.22
271.358	20915.27
271.427	20957.25
271.496	20993.2
271.565	20993.63
271.634	21014.88
271.703	21160.67
271.772	21227.94
271.841	21233.92
271.91	21192.52
271.979	21216.57
272.048	21185.68
272.117	21240.57
272.186	21243.8
272.255	21295.28
272.324	21339.82
272.393	21376.64
272.462	21365.22
272.531	21388.06
272.6	21399.73
272.669	21473.61
272.738	21491.3
272.807	21521.96
272.876	21507.69
272.945	21658.03
273.013	21731.11
273.082	21799.51
273.151	21696.09
273.22	21724.77
273.289	21755.71
273.358	21858.58
273.427	21864.61
273.496	21919.31
273.564	21963.86
273.633	22025.61
273.702	21999.19
273.771	22006.86
273.84	22039.15
273.909	22078.92
273.977	22126.02
274.046	22138.75
274.115	22201.37
274.184	22191.01
274.253	22209.71
274.322	22300.43
274.39	22239.25
274.459	22222.23
274.528	22176.14
274.597	22196
274.665	22226.37
274.734	22304.85
274.803	22315.17
274.872	22348.87
274.94	22336.82
275.009	22577.49
275.078	22562.64
275.147	22598.75
275.215	22627.87
275.284	22707.76
275.353	22726.66
275.421	22684.04
275.49	22786.51
275.559	22791.81
275.627	22820.78
275.696	22843.68
275.765	22869.33
275.833	22880.7
275.902	22931.19
275.971	23018.93
276.039	23121.73
276.108	23186.83
276.177	23222.66
276.245	23222.27
276.314	23245.22
276.383	23317.73
276.451	23129.67
276.52	23193.26
276.588	23290.34
276.657	23352.84
276.725	23345.6
276.794	23386.35
276.863	23475.84
276.931	23438.71
277	23514.81
277.068	23603.58
277.137	23705.1
277.205	23752.7
277.274	23873.07
277.342	23945.66
277.411	23919.29
277.48	23918.28
277.548	23930.91
277.617	23982.67
277.685	24019.51
277.754	24084.19
277.822	24105.31
277.89	24205.91
277.959	24238.85
278.027	24229.4
278.096	24241.36
278.164	24395.68
278.233	24405.81
278.301	24412.46
278.37	24469.96
278.438	24466.43
278.507	24515.64
278.575	24466.81
278.643	24499.81
278.712	24473.38
278.78	24475.45
278.849	24560.96
278.917	24644.34
278.985	24673.52
279.054	24721.93
279.122	24795.59
279.191	24828.16
279.259	24857.01
279.327	24806.43
279.396	24894.4
279.464	24922.19
279.532	24997.13
279.601	25015.96
279.669	25060.11
279.737	25144.16
279.806	25208.92
279.874	25282.23
279.942	25319.77
280.011	25362.85
280.079	25437.66
280.147	25546.72
280.215	25610.38
280.284	25639.09
280.352	25629.29
280.42	25700.68
280.488	25698.02
280.557	25722.44
280.625	25778.72
280.693	25833.73
280.761	25905.41
280.83	25898.79
280.898	25980.46
280.966	25949.04
281.034	25881.39
281.102	25887.19
281.171	25912.77
281.239	25985.26
281.307	26000.32
281.375	26003.12
281.443	26130.67
281.512	26154.92
281.58	26209.54
281.648	26196.55
281.716	26246.08
281.784	26293.34
281.852	26308.16
281.92	26361.46
281.989	26453.95
282.057	26442.6
282.125	26635.39
282.193	26676.87
282.261	26720.71
282.329	26746.4
282.397	26800.86
282.465	26859.08
282.533	26947.05
282.601	26960.71
282.67	26922.84
282.738	26941.05
282.806	27044.29
282.874	27047.38
282.942	27100.52
283.01	27126.95
283.078	27191.47
283.146	27230.25
283.214	27316.24
283.282	27382.33
283.35	27474.86
283.418	27489.65
283.486	27555.18
283.554	27458.45
283.622	27489.08
283.69	27529.07
283.758	27565.06
283.826	27635.73
283.894	27717.14
283.962	27836.39
284.03	27940.03
284.098	28000.27
284.165	28041.76
284.233	28072.49
284.301	28091.05
284.369	28112.12
284.437	28131.74
284.505	28163.2
284.573	28259.42
284.641	28260
284.709	28320.33
284.777	28292.82
284.845	28369.46
284.912	28432.14
284.98	28497.59
285.048	28538.14
285.116	28603.05
285.184	28710.63
285.252	28766.46
285.319	28757.28
285.387	28763.03
285.455	28751.58
285.523	28812.1
285.591	28844.67
285.659	28890.17
285.726	28987.89
285.794	28996.69
285.862	29041.07
285.93	29087.82
285.997	29116.11
286.065	29147.19
286.133	29155.27
286.201	29206.71
286.269	29198.15
286.336	29222.71
286.404	29239.64
286.472	29323.95
286.539	29291.75
286.607	29270.22
286.675	29320.19
286.743	29396.93
286.81	29422.62
286.878	29512.05
286.946	29534.88
287.013	29578.29
287.081	29628.65
287.149	29617.86
287.216	29729.12
287.284	29753.6
287.352	29806.51
287.419	29838.45
287.487	29944.46
287.555	30023.19
287.622	30048.05
287.69	30113.08
287.758	30198.29
287.825	30229.49
287.893	30225.47
287.96	30309.52
288.028	30400.55
288.096	30459.75
288.163	30526.97
288.231	30538.97
288.298	30588.4
288.366	30692.03
288.433	30739.04
288.501	30760.05
288.569	30814.3
288.636	30830.95
288.704	30933.82
288.771	31005.7
288.839	31023.99
288.906	31033.29
288.974	31113.01
289.041	31167.74
289.109	31178.73
289.176	31253.94
289.244	31326.79
289.311	31422.86
289.379	31511.2
289.446	31555.04
289.514	31583.7
289.581	31617.99
289.649	31673.57
289.716	31718.03
289.783	31733.48
289.851	31853.66
289.918	31901.45
289.986	31999.87
290.053	32064.58
290.121	32098.73
290.188	32161.13
290.255	32320.85
290.323	32349.38
290.39	32364.4
290.458	32444.4
290.525	32544.29
290.592	32569.1
290.66	32617.73
290.727	32651.16
290.794	32747.99
290.862	32803.09
290.929	32871.9
290.996	32923.54
291.064	33011.15
291.131	33100.72
291.198	33191.93
291.266	33227.02
291.333	33274.83
291.4	33329.71
291.468	33424.91
291.535	33459.91
291.602	33513.76
291.669	33523.55
291.737	33593.04
291.804	33644.86
291.871	33745.12
291.938	33812.07
292.006	33956.7
292.073	34038.38
292.14	34127.93
292.207	34143.69
292.275	34191.6
292.342	34253.81
292.409	34395.77
292.476	34527.07
292.543	34539.48
292.611	34591.33
292.678	34700.12
292.745	34841.81
292.812	34916.56
292.879	34954.2
292.946	35018.31
293.014	35111.83
293.081	35194.3
293.148	35294.01
293.215	35400.02
293.282	35439.46
293.349	35525.14
293.416	35500.64
293.484	35614.56
293.551	35688.12
293.618	35794.66
293.685	35937.72
293.752	35983.81
293.819	36015.8
293.886	36017.5
293.953	36101.43
294.02	36179.07
294.087	36254.55
294.154	36284.15
294.221	36394.11
294.288	36451.13
294.356	36567.94
294.423	36639.25
294.49	36659.49
294.557	36757.83
294.624	36761.86
294.691	36879.43
294.758	36932.68
294.825	37019.76
294.892	37019.32
294.959	37059.47
295.026	37139.44
295.093	37167.17
295.16	37216.86
295.226	37269.93
295.293	37411.58
295.36	37476.1
295.427	37581.04
295.494	37669.04
295.561	37757.21
295.628	37884.01
295.695	37990.25
295.762	38048.19
295.829	38139.99
295.896	38267.16
295.963	38352.94
296.03	38457.33
296.096	38523.59
296.163	38618.88
296.23	38733.27
296.297	38855.99
296.364	38913.24
296.431	38980.67
296.498	39011.7
296.564	39151.33
296.631	39220.79
296.698	39217.39
296.765	39346.99
296.832	39365.35
296.899	39373.71
296.965	39487.25
297.032	39469.71
297.099	39587.59
297.166	39677.08
297.233	39705.46
297.299	39729.36
297.366	39781.35
297.433	39847.71
297.5	39921.82
297.566	39986.06
297.633	40035.68
297.7	40095.69
297.767	40144.8
297.833	40221.1
297.9	40300.34
297.967	40300.82
298.033	40400.35
298.1	40565.02
298.167	40590.34
298.234	40671.73
298.3	40777.77
298.367	40815.34
298.434	40905.95
298.5	40933.51
298.567	40964.71
298.634	41018.9
298.7	41135.89
298.767	41199.32
298.834	41300.42
298.9	41353.84
298.967	41356.42
299.033	41426.71
299.1	41530.5
299.167	41649.87
299.233	41686.47
299.3	41778.49
299.366	41914.39
299.433	42015.05
299.5	41974.89
299.566	42048.87
299.633	42157.83
299.699	42244.09
299.766	42291.93
299.832	42342.31
299.899	42418.12
299.965	42532.68
300.032	42582.02
300.099	42671.65
300.165	42755.19
300.232	42799.44
300.298	42846.12
300.365	42973.76
300.431	43037.85
300.498	43070.05
300.564	43144.45
300.631	43237.49
300.697	43339.1
300.763	43361.56
300.83	43413.57
300.896	43513.8
300.963	43598.38
301.029	43660.65
301.096	43726.47
301.162	43818.94
301.229	43863.89
301.295	43887.82
301.361	43949.02
301.428	44030.29
301.494	44003.73
301.561	44048.93
301.627	44117.76
301.693	44193.16
301.76	44259.43
301.826	44295.24
301.892	44402.09
301.959	44488.56
302.025	44540.63
302.092	44581.46
302.158	44679.73
302.224	44739.95
302.291	44774.44
302.357	44814.34
302.423	44838
302.49	44852.55
302.556	44945.13
302.622	44995.21
302.688	45093.62
302.755	45184.51
302.821	45258.82
302.887	45369.91
302.954	45419.7
303.02	45490.28
303.086	45547.23
303.152	45577.36
303.219	45623.45
303.285	45677.79
303.351	45737.06
303.417	45785.35
303.483	45797.91
303.55	45828.57
303.616	45872.31
303.682	45922.44
303.748	45954.32
303.815	46064.64
303.881	46160.52
303.947	46161.34
304.013	46220.75
304.079	46241.93
304.145	46219.53
304.212	46256.14
304.278	46265.68
304.344	46301.08
304.41	46314.18
304.476	46339.21
304.542	46369.35
304.608	46440.16
304.674	46444.4
304.741	46485.47
304.807	46564.25
304.873	46638.91
304.939	46746.92
305.005	46731.14
305.071	46773.41
305.137	46830.29
305.203	46787.51
305.269	46811.97
305.335	46897.59
305.401	46947.14
305.467	46969.4
305.533	47047.6
305.599	47134.92
305.666	47213.44
305.732	47272.98
305.798	47363.37
305.864	47497.96
305.93	47582.26
305.996	47625.73
306.062	47669.49
306.128	47701.56
306.194	47681.83
306.259	47723.3
306.325	47736.13
306.391	47834.04
306.457	47903.48
306.523	47959.14
306.589	48083.75
306.655	48107.78
306.721	48089.31
306.787	48085.02
306.853	48190.28
306.919	48179.02
306.985	48190.53
307.051	48220.85
307.117	48235.43
307.183	48259.47
307.248	48201.33
307.314	48248.06
307.38	48292
307.446	48361.99
307.512	48361.35
307.578	48427.02
307.644	48463.21
307.709	48495.94
307.775	48511.65
307.841	48543.01
307.907	48596.37
307.973	48565.78
308.039	48618.9
308.104	48684.49
308.17	48743.15
308.236	48731.44
308.302	48775.32
308.368	48783.36
308.433	48817.02
308.499	48855.35
308.565	48836.57
308.631	48894.76
308.696	48854.57
308.762	48856.76
308.828	48880.39
308.894	48869.42
308.959	48842.5
309.025	48839.76
309.091	48866.95
309.156	48881.54
309.222	48920.53
309.288	48908.23
309.354	48885.31
309.419	48916.89
309.485	48904.3
309.551	48950.62
309.616	48923.54
309.682	48965.55
309.748	48973.41
309.813	49000.54
309.879	49001.66
309.945	49018.97
310.01	49028.98
310.076	49081.61
310.141	49114.75
310.207	49088.64
310.273	49133.75
310.338	49190.53
310.404	49165.17
310.469	49145.16
310.535	49153.21
310.601	49117.54
310.666	49159.42
310.732	49233.43
310.797	49224.2
310.863	49226.35
310.928	49242.51
310.994	49302.33
311.059	49329.28
311.125	49369.53
311.191	49434.1
311.256	49452.74
311.322	49522.15
311.387	49507.85
311.453	50132.61
311.518	50130.71
311.584	50184.07
311.649	50243.39
311.715	50247.98
311.78	50313.06
311.846	50341.66
311.911	50395.82
311.976	50457.66
312.042	50464.06
312.107	50455.95
312.173	50460.05
312.238	50482.6
312.304	50500.38
312.369	50515.95
312.434	50511.56
312.5	50519.86
312.565	50456.17
312.631	50488.58
312.696	50488.63
312.761	50533.69
312.827	49957.36
312.892	50074.99
312.958	50098.15
313.023	50110.02
313.088	50148.45
313.154	50142.01
313.219	50138.05
313.284	50149.54
313.35	50163.6
313.415	50155.89
313.48	50186.99
313.546	50240.73
313.611	50315.31
313.676	50317.27
313.741	50318.54
313.807	50372.23
313.872	50430.8
313.937	50482.13
314.003	50565.89
314.068	50606.59
314.133	50654.77
314.198	50655.65
314.264	50614.08
314.329	50599.66
314.394	50639.79
314.459	50656.45
314.525	50748.88
314.59	50785.66
314.655	50779.94
314.72	50833.46
314.785	50880.99
314.851	50874.74
314.916	50856.07
314.981	50845.76
315.046	50852.06
315.111	50862.22
315.176	50861.64
315.242	50899.34
315.307	50930.71
315.372	50879.82
315.437	50869.17
315.502	50872.05
315.567	50946.26
315.632	50928.18
315.698	50984.89
315.763	50993.45
315.828	50988.41
315.893	50993.4
315.958	50991.89
316.023	50977.38
316.088	50931.28
316.153	50876.18
316.218	50884.88
316.283	50811.44
316.348	50747.51
316.413	50749.76
316.479	50696.75
316.544	50574.69
316.609	50453.33
316.674	50313.01
316.739	50199.24
316.804	50079.93
316.869	49940.64
316.934	49774.82
316.999	49647.18
317.064	49429.38
317.129	49236.32
317.194	49074.55
317.259	48864.33
317.324	48657.76
317.389	48466.49
317.454	48286.64
317.518	48129.26
317.583	47985.79
317.648	47871.38
317.713	47698.35
317.778	47439.89
317.843	47284.08
317.908	47101.43
317.973	46910.75
318.038	46755.37
318.103	46559.99
318.168	46384.2
318.233	46200.11
318.297	45961.85
318.362	45756.27
318.427	45545.39
318.492	45389.44
318.557	45152.25
318.622	44988.3
318.687	44826.71
318.751	44606.66
318.816	44404.56
318.881	44190.69
318.946	43917.42
319.011	43662.63
319.075	43430.67
319.14	43222.18
319.205	42972.52
319.27	42759.4
319.335	42504.16
319.399	42266.29
319.464	42076.23
319.529	41806.08
319.594	41575.87
319.658	41377.65
319.723	41136.41
319.788	40956.44
319.853	40657.71
319.917	40463.15
319.982	40167.58
320.047	39925.2
320.112	39734.4
320.176	39445.43
320.241	39201.56
320.306	38989.41
320.37	38750.78
320.435	38530.02
320.5	38307.43
320.564	38055.89
320.629	37800.51
320.694	37580.42
320.758	37333.78
320.823	37056.67
320.888	36832.14
320.952	36549.23
321.017	36272.98
321.082	36010.71
321.146	35753.89
321.211	35523.82
321.275	35248.3
321.34	34977.78
321.405	34705.17
321.469	34416.46
321.534	34153.72
321.598	33866.89
321.663	33627.71
321.727	33369.98
321.792	33071.35
321.857	32788.71
321.921	32532.61
321.986	32265.21
322.05	31935.19
322.115	31667.83
322.179	31395.19
322.244	31078.33
322.308	30824.74
322.373	30544.77
322.437	30288.63
322.502	30076.95
322.566	29787.97
322.631	29538.67
322.695	29269.93
322.76	28987.08
322.824	28738.2
322.889	28461.57
322.953	28177.36
323.018	27808.98
323.082	27461.51
323.146	27159.6
323.211	26849.74
323.275	26555.9
323.34	26260.38
323.404	26017.59
323.468	25718.2
323.533	25428.31
323.597	25130.58
323.662	24819.67
323.726	24567.34
323.79	24259.61
323.855	23876.96
323.919	23570.81
323.983	23278.15
324.048	22846.84
324.112	23022.77
324.177	22106.67
324.241	20905.63
324.305	19726.83
324.37	18569.07
324.434	17446.86
324.498	17133.32
324.562	16784.33
324.627	16395.38
324.691	16006.41
324.755	15557.25
324.82	15063.58
324.884	14531.15
324.948	14004.71
325.012	13359.66
325.077	12543.21
