Data from 20250701_reference_start_MAYP1162681_14-07-09-362.txt Node
Date: Tue Jul 01 14:07:09 BST 2025
User: adleo
Spectrometer: MAYP116268
Trigger mode: 0
Integration Time (sec): 4.000000E0
Scans to average: 1
Electric dark correction enabled: true
Nonlinearity correction enabled: true
Boxcar width: 10
XAxis mode: Wavelengths
Number of Pixels in Spectrum: 2068
>>>>>Begin Spectral Data<<<<<
179.565	4332.03
179.642	4553.28
179.718	4728.4
179.795	4884.84
179.871	5020.21
179.948	5098.71
180.024	5180.67
180.101	5275.7
180.177	5333.45
180.254	5426.93
180.33	5521.46
180.407	5838.58
180.483	6174.88
180.56	6518.19
180.636	6830.36
180.712	6793.69
180.789	6833.32
180.865	6878.4
180.942	6909.33
181.018	6950.55
181.095	6994.39
181.171	7009.52
181.248	7012.41
181.324	7070.04
181.4	7098.88
181.477	7134.68
181.553	7177.76
181.63	7259.42
181.706	7318.22
181.782	7351.02
181.859	7348.42
181.935	7361.5
182.011	7344.87
182.088	7405.64
182.164	7476.77
182.24	7529.97
182.317	7560.53
182.393	7553.9
182.469	7603.37
182.546	7654.33
182.622	7669.38
182.698	7657.69
182.775	7704.28
182.851	7762.51
182.927	7733.23
183.003	7713.57
183.08	7690.16
183.156	7728.96
183.232	7718.28
183.308	7669.86
183.385	7703.94
183.461	7769.68
183.537	7780.41
183.613	7831.91
183.69	7802.14
183.766	7754.51
183.842	7784.67
183.918	7805.92
183.995	7851.75
184.071	7863.63
184.147	7848.14
184.223	7809.5
184.299	7854.29
184.375	7813.42
184.452	7826.6
184.528	7961.76
184.604	8003.87
184.68	8053.35
184.756	8082.55
184.832	8103.58
184.908	8121.26
184.985	8111.41
185.061	8048.31
185.137	8073.9
185.213	8027.45
185.289	8026.34
185.365	8006.34
185.441	8004.04
185.517	8053.36
185.593	8041.38
185.669	8035.95
185.745	8070.83
185.822	8136.3
185.898	8103.1
185.974	8138.54
186.05	8113.62
186.126	8040.9
186.202	8012.77
186.278	7999.54
186.354	7958.03
186.43	7976.8
186.506	7975.93
186.582	7976.89
186.658	8006.55
186.734	7930.63
186.81	7944.58
186.886	7956.98
186.962	8000.69
187.038	7977.17
187.114	7945.74
187.19	7976
187.266	7937.82
187.341	7939.07
187.417	7909.78
187.493	7917.62
187.569	7932.63
187.645	7915.46
187.721	7868.08
187.797	7896.93
187.873	7910.25
187.949	7890.44
188.025	7864.89
188.101	7876.29
188.176	7899.85
188.252	7879.37
188.328	7912.58
188.404	7909.83
188.48	7889.79
188.556	7867.9
188.632	7869.97
188.707	7874.3
188.783	7864.82
188.859	7847.13
188.935	7804.13
189.011	7833.13
189.086	7807.79
189.162	7772.63
189.238	7763.3
189.314	7754.5
189.39	7736.66
189.465	7711.27
189.541	7776.63
189.617	7719.89
189.693	7700.76
189.768	7709.66
189.844	7800.93
189.92	7769.79
189.996	7804.71
190.071	7851.89
190.147	7850.4
190.223	7889.17
190.298	7861.7
190.374	7810.34
190.45	7858.51
190.526	7895.21
190.601	7876.89
190.677	7879.92
190.753	7988.54
190.828	8000.13
190.904	8061.32
190.98	8120.26
191.055	8158.45
191.131	8127.17
191.207	8209.8
191.282	8247.31
191.358	8212.25
191.433	8162.05
191.509	8210.59
191.585	8201.02
191.66	8201.84
191.736	8228.25
191.811	8189.47
191.887	8251.74
191.963	8346.09
192.038	8364.61
192.114	8366.29
192.189	8382.12
192.265	8370.29
192.34	8287.4
192.416	8288.02
192.491	8272.04
192.567	8283.74
192.642	8299.62
192.718	8302.94
192.793	8254.06
192.869	8239.63
192.944	8250.74
193.02	8279.66
193.095	8296.21
193.171	8319.88
193.246	8319.88
193.322	8307.66
193.397	8309.87
193.473	8256.4
193.548	8186.29
193.624	8210.83
193.699	8207.56
193.775	8269.56
193.85	8278.4
193.925	8312.86
194.001	8311.27
194.076	8284.28
194.152	8246.35
194.227	8219.21
194.302	8178.92
194.378	8197.1
194.453	8185.37
194.529	8229.53
194.604	8172.86
194.679	8149.96
194.755	8078.79
194.83	8129.67
194.905	8126.4
194.981	8163.54
195.056	8139.01
195.131	8163.21
195.207	8156.03
195.282	8115.63
195.357	8042.19
195.433	8098.62
195.508	8055.36
195.583	8082.78
195.659	8133.5
195.734	8154.86
195.809	8149.52
195.884	8188.57
195.96	8190.39
196.035	8255.24
196.11	8243.89
196.185	8290.07
196.261	8308.59
196.336	8427.33
196.411	8370.57
196.486	8394.1
196.561	8367.44
196.637	8399.04
196.712	8463.02
196.787	8472.89
196.862	8533.36
196.937	8571.46
197.013	8596.35
197.088	8636.43
197.163	8715.92
197.238	8784.45
197.313	8791.38
197.388	8842.01
197.464	8956.32
197.539	8996.74
197.614	8966.57
197.689	9013.26
197.764	9080.68
197.839	9156.59
197.914	9125.78
197.989	9212.92
198.065	9263.66
198.14	9454.15
198.215	9549.49
198.29	9586.63
198.365	9630.88
198.44	9673.4
198.515	9777.81
198.59	9836.29
198.665	9932.47
198.74	9963.98
198.815	9970.34
198.89	10049.85
198.965	10163.41
199.04	10151.51
199.115	10210.84
199.19	10373.98
199.265	10388.81
199.34	10426.25
199.415	10558.96
199.49	10653.18
199.565	10691.05
199.64	10778.54
199.715	10774.06
199.79	10804.9
199.865	10836.84
199.94	10839.4
200.015	10960.97
200.09	10983.29
200.165	11002.42
200.24	11030.22
200.315	11176.65
200.39	11229.18
200.464	11253.85
200.539	11260.99
200.614	11316.74
200.689	11411.39
200.764	11433.27
200.839	11498.8
200.914	11514.32
200.989	11468.77
201.063	11518.94
201.138	11455.01
201.213	11463.01
201.288	11390.24
201.363	11413.85
201.438	11413.23
201.512	11474.95
201.587	11405.4
201.662	11420.2
201.737	11476.78
201.812	11504.54
201.886	11389.58
201.961	11431.8
202.036	11384.97
202.111	11375.91
202.186	11274.45
202.26	11207.45
202.335	11132.56
202.41	11107.26
202.485	11048.09
202.559	10971.96
202.634	10873.71
202.709	10906.84
202.784	10830.66
202.858	10832.78
202.933	10767.83
203.008	10742.34
203.082	10667.18
203.157	10673.93
203.232	10517
203.306	10427.41
203.381	10309.46
203.456	10222.26
203.53	10137.1
203.605	10067.42
203.68	9981.17
203.754	9957.1
203.829	9898.23
203.904	9819.19
203.978	9778.73
204.053	9797.71
204.127	9756.92
204.202	9751.28
204.277	9688.63
204.351	9667.29
204.426	9638.72
204.5	9602.46
204.575	9473.96
204.65	9513.61
204.724	9478.14
204.799	9514.24
204.873	9504.08
204.948	9504.13
205.022	9464.65
205.097	9430.4
205.171	9486.44
205.246	9519.68
205.32	9513.95
205.395	9517.66
205.469	9492.3
205.544	9516.53
205.618	9455.89
205.693	9505.83
205.767	9465.96
205.842	9545.43
205.916	9528.05
205.991	9497.32
206.065	9520.68
206.14	9582.13
206.214	9568.69
206.289	9546.1
206.363	9593.87
206.438	9611.89
206.512	9639.34
206.586	9714.41
206.661	9749.34
206.735	9671.74
206.81	9680.7
206.884	9740.94
206.958	9700.06
207.033	9769.53
207.107	9800.27
207.181	9916.66
207.256	9896.09
207.33	9973.3
207.405	10020.43
207.479	10088.39
207.553	10115.12
207.628	10058.74
207.702	10110.99
207.776	10086.72
207.851	10098.04
207.925	10155.95
207.999	10136.93
208.073	10133.6
208.148	10144.59
208.222	10103.97
208.296	10228.02
208.371	10289.08
208.445	10333.55
208.519	10439.61
208.593	10482.44
208.668	10471.46
208.742	10486.78
208.816	10496.75
208.89	10544.41
208.965	10546.15
209.039	10583.64
209.113	10653.7
209.187	10735.13
209.261	10717.83
209.336	10798.01
209.41	10880.93
209.484	10888.16
209.558	10981.21
209.632	11031.37
209.707	11076.81
209.781	11160.03
209.855	11225.67
209.929	11289.74
210.003	11314.46
210.077	11316.24
210.151	11492.32
210.226	11631.19
210.3	11734.25
210.374	11818.77
210.448	11842.68
210.522	11886.44
210.596	11926.84
210.67	11968.96
210.744	12151.97
210.818	12280.93
210.892	12360.9
210.966	12346.44
211.041	12407.03
211.115	12393.29
211.189	12488.83
211.263	12555.59
211.337	12583.69
211.411	12631.6
211.485	12614.35
211.559	12661.87
211.633	12677.68
211.707	12568.16
211.781	12588.26
211.855	12456.71
211.929	12430.01
212.003	12354.88
212.077	12387.56
212.151	12434.42
212.225	12467.24
212.299	12425.69
212.373	12373.15
212.447	12356.04
212.52	12464.3
212.594	12469.27
212.668	12515.97
212.742	12457.07
212.816	12438.37
212.89	12416.72
212.964	12412.05
213.038	12426.99
213.112	12471.1
213.186	12517.47
213.26	12438.91
213.333	12266.89
213.407	12283.42
213.481	12292.87
213.555	12336.86
213.629	12288.99
213.703	12223.49
213.777	12207.05
213.85	12131.8
213.924	12258.53
213.998	12250.58
214.072	12213.75
214.146	12155.66
214.219	12133.78
214.293	12111.37
214.367	12097.63
214.441	12119.51
214.515	12071.35
214.588	11963.53
214.662	11823.32
214.736	11732.52
214.81	11746.01
214.883	11762.3
214.957	11705.87
215.031	11639.47
215.105	11532.86
215.178	11457.58
215.252	11415.41
215.326	11303.51
215.4	11204.73
215.473	11002.26
215.547	10907.65
215.621	10832.21
215.694	10823.2
215.768	10708.37
215.842	10638.75
215.915	10561.93
215.989	10438.42
216.063	10364.25
216.136	10337.41
216.21	10306.49
216.284	10318.29
216.357	10284.81
216.431	10238.8
216.504	10230.32
216.578	10294.89
216.652	10307.65
216.725	10282.74
216.799	10287.32
216.873	10271.13
216.946	10272.82
217.02	10224.42
217.093	10186.37
217.167	10070.76
217.24	9978.15
217.314	9946.42
217.387	9889.65
217.461	9837.44
217.535	9866.34
217.608	9791.74
217.682	9764.28
217.755	9773.96
217.829	9709.7
217.902	9686.29
217.976	9668.28
218.049	9615.49
218.123	9530.17
218.196	9525.25
218.27	9483.93
218.343	9401.46
218.417	9394.67
218.49	9370.11
218.563	9418.99
218.637	9426.07
218.71	9505.53
218.784	9533.71
218.857	9557.26
218.931	9581.13
219.004	9588.79
219.077	9601.8
219.151	9622.89
219.224	9607.38
219.298	9600.15
219.371	9649.24
219.444	9607.16
219.518	9615.15
219.591	9637.06
219.665	9746.54
219.738	9757.18
219.811	9731.9
219.885	9777.71
219.958	9803.77
220.031	9806.22
220.105	9825.64
220.178	9831.95
220.251	9800.97
220.325	9822.99
220.398	9847.12
220.471	9873.6
220.544	9916.43
220.618	9888.2
220.691	9918.2
220.764	9937.56
220.838	9967.43
220.911	9947.72
220.984	10044.87
221.057	10081.62
221.131	10110.86
221.204	10004.37
221.277	10081.17
221.35	10222.31
221.424	10212.05
221.497	10223.22
221.57	10247.88
221.643	10286.67
221.716	10337.84
221.79	10344.34
221.863	10356.63
221.936	10367.18
222.009	10377.1
222.082	10405.63
222.155	10413.58
222.229	10485.42
222.302	10509.41
222.375	10519
222.448	10567.18
222.521	10568.77
222.594	10562.51
222.667	10523.21
222.74	10588.01
222.814	10583.72
222.887	10566.61
222.96	10627.27
223.033	10678.79
223.106	10708.22
223.179	10732.7
223.252	10740.22
223.325	10775.34
223.398	10792.74
223.471	10818.27
223.544	10845.93
223.617	10858.84
223.69	10887.37
223.763	10844.23
223.837	10874.45
223.91	10905.77
223.983	10844.87
224.056	10804.35
224.129	10833.79
224.202	10889.91
224.275	10868.51
224.348	10835.27
224.42	10794.45
224.493	10726.46
224.566	10696.63
224.639	10719.37
224.712	10692.24
224.785	10680.43
224.858	10666.08
224.931	10643.38
225.004	10603
225.077	10595.49
225.15	10500.73
225.223	10497.26
225.296	10584.15
225.369	10522.97
225.442	10476.95
225.514	10499.16
225.587	10525.08
225.66	10531.73
225.733	10533.07
225.806	10545.75
225.879	10536.79
225.952	10502.2
226.025	10557.75
226.097	10617.71
226.17	10608.6
226.243	10533.06
226.316	10529.11
226.389	10540.43
226.461	10560.19
226.534	10587.65
226.607	10583.89
226.68	10668.77
226.753	10657.02
226.825	10569.49
226.898	10631.02
226.971	10643.69
227.044	10665.13
227.117	10676.07
227.189	10697.32
227.262	10743
227.335	10758.18
227.407	10758.71
227.48	10797.16
227.553	10814.27
227.626	10787.85
227.698	10791.27
227.771	10844.36
227.844	10821.71
227.916	10838.77
227.989	10803.4
228.062	10798
228.134	10903.36
228.207	10907.89
228.28	10913.57
228.352	10931.4
228.425	10946.34
228.498	10999.21
228.57	10982.1
228.643	11052.85
228.716	11058.25
228.788	11046.39
228.861	11056.56
228.934	11124.31
229.006	11136.02
229.079	11141.95
229.151	11139.73
229.224	11108.03
229.296	11138.58
229.369	11256.48
229.442	11309.06
229.514	11293.4
229.587	11348.63
229.659	11253.97
229.732	11273.59
229.804	11317.54
229.877	11406.03
229.949	11435.87
230.022	11491.25
230.094	11492.55
230.167	11475.01
230.239	11421.81
230.312	11412.26
230.384	11483.7
230.457	11477.72
230.529	11482.3
230.602	11475.5
230.674	11480.03
230.747	11528.31
230.819	11556.02
230.892	11419.73
230.964	11422.14
231.037	11453.7
231.109	11437.02
231.181	11483.48
231.254	11445.12
231.326	11425.5
231.399	11396.72
231.471	11363.85
231.544	11276.03
231.616	11323.98
231.688	11329.43
231.761	11313.96
231.833	11294.11
231.905	11195.73
231.978	11193.57
232.05	11175.21
232.122	11184.22
232.195	11147.83
232.267	11182.53
232.339	11153.04
232.412	11228.79
232.484	11201.03
232.556	11168.65
232.629	11243.65
232.701	11260.95
232.773	11276.71
232.846	11263.07
232.918	11263.03
232.99	11281.24
233.062	11327.37
233.135	11341.1
233.207	11296.86
233.279	11350.34
233.351	11392.65
233.424	11400.75
233.496	11373.71
233.568	11475.46
233.64	11440.18
233.713	11466.69
233.785	11469.29
233.857	11488.13
233.929	11431.56
234.001	11504.1
234.074	11572.48
234.146	11497.24
234.218	11497.67
234.29	11493.38
234.362	11480.47
234.434	11435.5
234.507	11404.6
234.579	11352.6
234.651	11328.79
234.723	11371.11
234.795	11391.93
234.867	11385.81
234.939	11448.71
235.012	11468.03
235.084	11469.62
235.156	11508.27
235.228	11486.83
235.3	11468.46
235.372	11483.5
235.444	11547.07
235.516	11457.46
235.588	11467.29
235.66	11477.7
235.732	11442.76
235.804	11658.37
235.876	11712.73
235.948	11784.21
236.02	11799.73
236.092	11816.21
236.164	11834.62
236.236	11833.66
236.308	11839.06
236.38	11866.77
236.452	11848.5
236.524	11880.55
236.596	11952.04
236.668	11990.99
236.74	12016.73
236.812	12047.38
236.884	12082.04
236.956	12098.67
237.028	12098.33
237.1	12087.82
237.172	12170.4
237.244	12256.39
237.316	12127.39
237.388	12107.39
237.46	12074.61
237.532	12146.19
237.604	12132.55
237.675	12219.85
237.747	12269.11
237.819	12249.3
237.891	12255.38
237.963	12240.24
238.035	12230.26
238.107	12101.75
238.178	12170.16
238.25	12183.46
238.322	12283.58
238.394	12235.86
238.466	12241.07
238.538	12289.85
238.609	12339.25
238.681	12278.71
238.753	12256.92
238.825	12277.07
238.897	12313.79
238.968	12412.95
239.04	12389.86
239.112	12517.65
239.184	12469.63
239.255	12460.47
239.327	12503.42
239.399	12531.47
239.471	12588.06
239.542	12627.15
239.614	12713.15
239.686	12620.88
239.758	12678.58
239.829	12639.49
239.901	12717.39
239.973	12734.35
240.044	12775.23
240.116	12785.21
240.188	12810.03
240.259	12832.55
240.331	12825.36
240.403	12867.49
240.474	12814.61
240.546	12802.71
240.618	12732.33
240.689	12731.51
240.761	12760.33
240.833	12835.2
240.904	12834.96
240.976	12835.2
241.048	12856.5
241.119	12888.37
241.191	12938.84
241.262	13019.34
241.334	13028.12
241.405	13035.01
241.477	13044.75
241.549	13050.63
241.62	13086.93
241.692	13135.04
241.763	13199.3
241.835	13223.3
241.906	13242.59
241.978	13215.83
242.049	13297.59
242.121	13371.39
242.192	13460.19
242.264	13421.96
242.335	13372.35
242.407	13425.19
242.478	13429.04
242.55	13447.94
242.621	13440.9
242.693	13440.52
242.764	13432.08
242.836	13434.2
242.907	13466.31
242.979	13494.75
243.05	13511.77
243.122	13533.61
243.193	13534.38
243.264	13458.07
243.336	13462.02
243.407	13506.9
243.479	13592.85
243.55	13612.33
243.622	13633.34
243.693	13624.04
243.764	13701.46
243.836	13674.46
243.907	13659.28
243.978	13665.79
244.05	13704.45
244.121	13655.86
244.192	13707.34
244.264	13644.58
244.335	13656.19
244.407	13600.71
244.478	13620.57
244.549	13622.6
244.62	13577.81
244.692	13579.11
244.763	13629.39
244.834	13615.12
244.906	13589.67
244.977	13611.02
245.048	13668.87
245.119	13648.38
245.191	13623.89
245.262	13557.08
245.333	13640.04
245.405	13657.73
245.476	13699.33
245.547	13714.33
245.618	13769.67
245.689	13789.48
245.761	13836.92
245.832	13863.53
245.903	13921.04
245.974	13958.49
246.045	13973.19
246.117	14069.94
246.188	14056.45
246.259	14039.52
246.33	14064.69
246.401	14084.55
246.473	14045.31
246.544	14034.13
246.615	14102.63
246.686	14105.66
246.757	14193.45
246.828	14176.62
246.899	14265.56
246.97	14232.59
247.042	14226.85
247.113	14277.22
247.184	14374.06
247.255	14373.19
247.326	14389.15
247.397	14401.01
247.468	14414.31
247.539	14432.29
247.61	14382.21
247.681	14435.62
247.752	14504.55
247.823	14479.39
247.894	14497.52
247.965	14477.8
248.037	14454.9
248.108	14394.93
248.179	14411.42
248.25	14406.94
248.321	14437.07
248.392	14389.73
248.463	14479.83
248.534	14479.01
248.605	14500.27
248.675	14467.88
248.746	14486.92
248.817	14503.69
248.888	14524.37
248.959	14463.39
249.03	14491.16
249.101	14495.74
249.172	14481.61
249.243	14397.25
249.314	14469.08
249.385	14473.71
249.456	14511.79
249.527	14509.38
249.598	14535.56
249.669	14539.03
249.739	14555.61
249.81	14572.05
249.881	14514.68
249.952	14507.94
250.023	14507.02
250.094	14458.86
250.165	14430.23
250.235	14428.5
250.306	14434.72
250.377	14398.61
250.448	14419.92
250.519	14350.36
250.59	14421.51
250.66	14411.57
250.731	14493.72
250.802	14495.12
250.873	14515.84
250.944	14539.99
251.014	14535.46
251.085	14635.91
251.156	14664.6
251.227	14715.3
251.297	14773.39
251.368	14843.86
251.439	14896.5
251.51	14952.71
251.58	14931.98
251.651	14928.07
251.722	14985.48
251.792	14930.77
251.863	14933.61
251.934	15011.75
252.005	15148.12
252.075	15151.73
252.146	15217.05
252.217	15274.65
252.287	15325.07
252.358	15332.25
252.429	15403.01
252.499	15397.81
252.57	15404.17
252.641	15465.67
252.711	15475.51
252.782	15426.05
252.852	15510.5
252.923	15506.21
252.994	15518.98
253.064	15577.74
253.135	15554.17
253.205	15540.24
253.276	15637.08
253.347	15714.78
253.417	15686.87
253.488	15664.99
253.558	15656.46
253.629	15651.01
253.699	15661.33
253.77	15694.01
253.841	15689.33
253.911	15708.99
253.982	15730.49
254.052	15771.75
254.123	15773.29
254.193	15779.94
254.264	15945.55
254.334	15901.78
254.405	15867.46
254.475	15837.92
254.546	15842.3
254.616	15915.57
254.687	15942.27
254.757	15963
254.827	15961.6
254.898	15991.82
254.968	15994.62
255.039	15983.14
255.109	16031.39
255.18	16007.73
255.25	15924.58
255.321	15966.13
255.391	15923.19
255.461	16020.5
255.532	15928.3
255.602	15918.76
255.673	15856.29
255.743	15813.35
255.813	15739.6
255.884	15799.27
255.954	15832.39
256.024	15907.48
256.095	15904.78
256.165	15871.62
256.235	15892.1
256.306	15874.51
256.376	15930.51
256.446	15972.98
256.517	16006.38
256.587	16051.78
256.657	16068.94
256.728	16101.72
256.798	16115.02
256.868	16116.08
256.938	16084.32
257.009	16138.4
257.079	16175.61
257.149	16282.08
257.219	16208.58
257.29	16260.59
257.36	16191.81
257.43	16242.8
257.5	16172.53
257.571	16169.78
257.641	16209.11
257.711	16176.72
257.781	16222.32
257.852	16242.71
257.922	16178.51
257.992	16179.32
258.062	16169.01
258.132	16213.11
258.202	16226.17
258.273	16236.1
258.343	16314.76
258.413	16306.27
258.483	16305.31
258.553	16275.38
258.623	16249.4
258.693	16292.73
258.764	16358.91
258.834	16440.37
258.904	16460.51
258.974	16455.55
259.044	16465.96
259.114	16498.01
259.184	16534.93
259.254	16546.88
259.324	16485.48
259.394	16537.82
259.464	16635.99
259.535	16658.74
259.605	16654.16
259.675	16644.09
259.745	16691.51
259.815	16667.8
259.885	16668.86
259.955	16803.85
260.025	16792.9
260.095	16819.56
260.165	16847.27
260.235	16925.24
260.305	16913.63
260.375	16875.51
260.445	16975.8
260.515	17054.46
260.585	17118.22
260.655	17130.75
260.725	17170.07
260.795	17216.49
260.865	17296.82
260.934	17263.72
261.004	17291.33
261.074	17302.99
261.144	17366.95
261.214	17409.36
261.284	17408.64
261.354	17452.78
261.424	17404.21
261.494	17488.94
261.564	17503.35
261.634	17532.99
261.703	17456.26
261.773	17487.74
261.843	17528.85
261.913	17519.01
261.983	17449.28
262.053	17463.54
262.123	17456.75
262.192	17414.53
262.262	17464.99
262.332	17412.07
262.402	17453.32
262.472	17465.52
262.541	17403.29
262.611	17449.32
262.681	17421.13
262.751	17474.72
262.821	17479.58
262.89	17448.16
262.96	17479.54
263.03	17556.3
263.1	17581.31
263.169	17611.39
263.239	17650.37
263.309	17725.99
263.379	17761.07
263.448	17789.55
263.518	17818.32
263.588	17836.92
263.657	17919.96
263.727	17953.74
263.797	17973.69
263.867	17967.29
263.936	17912.3
264.006	17978.66
264.076	17973.7
264.145	17961.03
264.215	17932.3
264.285	17977.03
264.354	17916.64
264.424	17903.68
264.494	17849.41
264.563	17851.97
264.633	17930.47
264.702	17951.96
264.772	17895.29
264.842	17901.22
264.911	17943.34
264.981	17893.94
265.05	17915.44
265.12	17914.33
265.19	17931.34
265.259	17980.59
265.329	18020.45
265.398	18070.81
265.468	18176.54
265.537	18178.13
265.607	18228.68
265.676	18287.09
265.746	18320.34
265.815	18396.05
265.885	18402.7
265.955	18388.53
266.024	18376.53
266.094	18306.51
266.163	18373.54
266.232	18452.38
266.302	18461.68
266.371	18490.21
266.441	18516.72
266.51	18559.85
266.58	18558.69
266.649	18537.1
266.719	18592.38
266.788	18620.95
266.858	18695.79
266.927	18624.04
266.996	18655.22
267.066	18687.02
267.135	18655.36
267.205	18692.42
267.274	18718.54
267.343	18777.52
267.413	18797.13
267.482	18873.47
267.552	18952.02
267.621	18901.85
267.69	18848.07
267.76	18876.94
267.829	18909.66
267.898	18939.54
267.968	18918.48
268.037	18972.55
268.106	19033.46
268.176	18998.38
268.245	19008.5
268.314	18995.24
268.384	19062.57
268.453	19082.47
268.522	19113.89
268.592	19189.45
268.661	19176.78
268.73	19210.89
268.799	19204.87
268.869	19295.08
268.938	19246.27
269.007	19235.95
269.076	19263.76
269.146	19326.74
269.215	19361.05
269.284	19438.79
269.353	19426.16
269.422	19447.27
269.492	19437.97
269.561	19348.14
269.63	19390.98
269.699	19392.38
269.768	19416.62
269.838	19447.03
269.907	19498.74
269.976	19459.08
270.045	19396.09
270.114	19437.34
270.183	19445.1
270.253	19482.45
270.322	19432.72
270.391	19460.81
270.46	19533.82
270.529	19590.64
270.598	19633.48
270.667	19640.81
270.736	19611.55
270.806	19659.31
270.875	19720.46
270.944	19731.93
271.013	19883.78
271.082	19917.76
271.151	19956.6
271.22	19911.21
271.289	19927.64
271.358	19942.48
271.427	19986.67
271.496	20016.31
271.565	20009.37
271.634	20035.88
271.703	20166.01
271.772	20236.13
271.841	20250.3
271.91	20214.44
271.979	20225.53
272.048	20203.36
272.117	20259.16
272.186	20265.53
272.255	20314.54
272.324	20357.05
272.393	20402.78
272.462	20383.69
272.531	20406.34
272.6	20428.56
272.669	20520.08
272.738	20533.23
272.807	20567.21
272.876	20555.45
272.945	20720.91
273.013	20799.37
273.082	20869.45
273.151	20778.73
273.22	20825.68
273.289	20855.94
273.358	20953.97
273.427	20971.8
273.496	21030.99
273.564	21073.3
273.633	21133.69
273.702	21112.68
273.771	21128.88
273.84	21161.45
273.909	21209.36
273.977	21242.86
274.046	21248.12
274.115	21305.28
274.184	21295.74
274.253	21311.07
274.322	21394.49
274.39	21320.11
274.459	21314.23
274.528	21265.75
274.597	21283.29
274.665	21304.64
274.734	21387.4
274.803	21387.54
274.872	21416.46
274.94	21414.73
275.009	21663.08
275.078	21645.83
275.147	21698.89
275.215	21737.36
275.284	21809.76
275.353	21811.11
275.421	21778.09
275.49	21889.5
275.559	21899.53
275.627	21930.28
275.696	21955.92
275.765	22008.27
275.833	22037.48
275.902	22077
275.971	22171.43
276.039	22289.06
276.108	22358.29
276.177	22401.77
276.245	22420.14
276.314	22446.12
276.383	22508.16
276.451	22311.77
276.52	22379.84
276.588	22474.53
276.657	22534.7
276.725	22543.96
276.794	22601.14
276.863	22700.49
276.931	22661.1
277	22733.86
277.068	22819.03
277.137	22924.2
277.205	22953.03
277.274	23069.47
277.342	23160.56
277.411	23146.05
277.48	23131.44
277.548	23134.19
277.617	23165.91
277.685	23195.81
277.754	23262.01
277.822	23283.41
277.89	23389.67
277.959	23416.48
278.027	23398.35
278.096	23403.56
278.164	23549.14
278.233	23569.73
278.301	23567.75
278.37	23634.06
278.438	23636.66
278.507	23687.82
278.575	23641.62
278.643	23681.6
278.712	23653.92
278.78	23642.78
278.849	23721.47
278.917	23804.77
278.985	23850.83
279.054	23915.71
279.122	24005.18
279.191	24046.61
279.259	24079.21
279.327	24050.36
279.396	24161.26
279.464	24198.01
279.532	24272.93
279.601	24300.01
279.669	24338.07
279.737	24447.67
279.806	24507.68
279.874	24576.91
279.942	24617.43
280.011	24656.01
280.079	24728.14
280.147	24832.24
280.215	24900.32
280.284	24928.54
280.352	24930.71
280.42	25003.09
280.488	25013.12
280.557	25034.21
280.625	25104.09
280.693	25153.58
280.761	25208.68
280.83	25189.33
280.898	25271.65
280.966	25248.1
281.034	25181.54
281.102	25186.32
281.171	25203.89
281.239	25295.86
281.307	25327.09
281.375	25336.93
281.443	25489.79
281.512	25527.92
281.58	25607.3
281.648	25603.68
281.716	25650.48
281.784	25700.87
281.852	25716.03
281.92	25764.68
281.989	25854.24
282.057	25836.96
282.125	26046.63
282.193	26091.62
282.261	26138.34
282.329	26177.21
282.397	26254.04
282.465	26310.8
282.533	26424.37
282.601	26435.18
282.67	26388.53
282.738	26403.06
282.806	26500.34
282.874	26483.91
282.942	26539.02
283.01	26553.12
283.078	26630.47
283.146	26676.04
283.214	26754.61
283.282	26812.66
283.35	26896.7
283.418	26915.59
283.486	26969.85
283.554	26860.54
283.622	26908.99
283.69	26960.9
283.758	26986.64
283.826	27050.3
283.894	27141.73
283.962	27241.56
284.03	27342.13
284.098	27391.43
284.165	27425.14
284.233	27469.29
284.301	27512.38
284.369	27530.69
284.437	27550.99
284.505	27584.75
284.573	27690.75
284.641	27701.77
284.709	27778.37
284.777	27765.23
284.845	27848.85
284.912	27933.25
284.98	28007.27
285.048	28034.09
285.116	28109.14
285.184	28204.2
285.252	28252.44
285.319	28249.68
285.387	28268.64
285.455	28270.33
285.523	28348.47
285.591	28396.15
285.659	28445.21
285.726	28531.17
285.794	28535.28
285.862	28580.86
285.93	28620.78
285.997	28642.77
286.065	28677.48
286.133	28685.02
286.201	28740.22
286.269	28739.68
286.336	28749.16
286.404	28771.98
286.472	28848.03
286.539	28815.5
286.607	28808.97
286.675	28856.17
286.743	28936.52
286.81	28962.35
286.878	29053.7
286.946	29073.76
287.013	29113.11
287.081	29153.35
287.149	29151.6
287.216	29269.3
287.284	29305.67
287.352	29353.3
287.419	29389.38
287.487	29494.25
287.555	29571.27
287.622	29602.22
287.69	29668.01
287.758	29761.37
287.825	29802.28
287.893	29815.35
287.96	29886.52
288.028	29982.26
288.096	30041.29
288.163	30096.02
288.231	30110.87
288.298	30151.62
288.366	30259.73
288.433	30314.08
288.501	30347.62
288.569	30400.98
288.636	30431.28
288.704	30520.04
288.771	30599.45
288.839	30638.5
288.906	30654.38
288.974	30727.83
289.041	30779.7
289.109	30780.76
289.176	30849.95
289.244	30914.02
289.311	31009.25
289.379	31095.05
289.446	31142.75
289.514	31187.58
289.581	31237.69
289.649	31296.89
289.716	31346.18
289.783	31369.48
289.851	31489.68
289.918	31531.31
289.986	31619.59
290.053	31674.74
290.121	31724.34
290.188	31784.88
290.255	31924.24
290.323	31960.75
290.39	31987.06
290.458	32068.7
290.525	32180.96
290.592	32224.42
290.66	32289.94
290.727	32325.36
290.794	32435.59
290.862	32491.89
290.929	32544.45
290.996	32590.71
291.064	32677.62
291.131	32770.33
291.198	32860.56
291.266	32897.48
291.333	32967.04
291.4	33035.04
291.468	33154.28
291.535	33183.59
291.602	33250.14
291.669	33267.01
291.737	33334.21
291.804	33387.38
291.871	33482.62
291.938	33545.01
292.006	33685.56
292.073	33773.2
292.14	33851.97
292.207	33868.99
292.275	33922.36
292.342	34008.07
292.409	34154.04
292.476	34286.05
292.543	34304.43
292.611	34369.18
292.678	34490.17
292.745	34619.11
292.812	34695.89
292.879	34722.37
292.946	34793.74
293.014	34880.51
293.081	34971.26
293.148	35064.27
293.215	35165.99
293.282	35205.81
293.349	35292.55
293.416	35282.75
293.484	35372.45
293.551	35467.45
293.618	35578.93
293.685	35713.77
293.752	35738.22
293.819	35784.33
293.886	35799.67
293.953	35875.97
294.02	35949.79
294.087	36014.05
294.154	36051.75
294.221	36152.18
294.288	36202.5
294.356	36326.72
294.423	36412.49
294.49	36433.65
294.557	36539.95
294.624	36570.52
294.691	36691.71
294.758	36745.4
294.825	36821.12
294.892	36851.02
294.959	36889.76
295.026	36965.94
295.093	36993.37
295.16	37057.03
295.226	37100.63
295.293	37233.19
295.36	37315.04
295.427	37408.56
295.494	37509.96
295.561	37595.51
295.628	37742.03
295.695	37859.96
295.762	37920.23
295.829	37993.18
295.896	38108.73
295.963	38203.98
296.03	38296.92
296.096	38373.61
296.163	38483.23
296.23	38586.92
296.297	38691.92
296.364	38760.63
296.431	38834.66
296.498	38879.39
296.564	39039.07
296.631	39115.76
296.698	39119.79
296.765	39262.42
296.832	39276.41
296.899	39295.84
296.965	39422.65
297.032	39395.97
297.099	39537.96
297.166	39622.88
297.233	39672.39
297.299	39702.02
297.366	39740.89
297.433	39793.07
297.5	39878.35
297.566	39928.16
297.633	39976.6
297.7	40055.75
297.767	40116.53
297.833	40197.05
297.9	40274.06
297.967	40265.41
298.033	40373.3
298.1	40546.91
298.167	40563.34
298.234	40652.99
298.3	40732.69
298.367	40753.68
298.434	40850.99
298.5	40851.48
298.567	40887.2
298.634	40936.04
298.7	41067.21
298.767	41128.75
298.834	41256.87
298.9	41297.7
298.967	41333.86
299.033	41424.67
299.1	41522.24
299.167	41627.27
299.233	41668.3
299.3	41763.38
299.366	41875.7
299.433	41964.2
299.5	41912.02
299.566	41977.31
299.633	42089.96
299.699	42178.31
299.766	42226.73
299.832	42269.42
299.899	42354.08
299.965	42447.96
300.032	42494.58
300.099	42560.28
300.165	42643.62
300.232	42683.93
300.298	42733.92
300.365	42834.86
300.431	42894.48
300.498	42924.78
300.564	42985.08
300.631	43075.15
300.697	43192.13
300.763	43249.03
300.83	43296.6
300.896	43401.69
300.963	43480.19
301.029	43544.55
301.096	43616.31
301.162	43713.34
301.229	43765.87
301.295	43784.11
301.361	43857.76
301.428	43936.64
301.494	43927.54
301.561	43984.56
301.627	44044.15
301.693	44113.42
301.76	44180.85
301.826	44216.32
301.892	44303.51
301.959	44405.35
302.025	44455.37
302.092	44475.57
302.158	44574.48
302.224	44635.71
302.291	44653.66
302.357	44690.11
302.423	44728.41
302.49	44743.79
302.556	44824.44
302.622	44869.55
302.688	44970.58
302.755	45073.69
302.821	45155.98
302.887	45266.14
302.954	45326.2
303.02	45405.59
303.086	45481.77
303.152	45533.8
303.219	45583.79
303.285	45669.3
303.351	45734.31
303.417	45786.35
303.483	45816.58
303.55	45834.54
303.616	45876.96
303.682	45941.2
303.748	45977.41
303.815	46073.12
303.881	46176.35
303.947	46198.94
304.013	46271.15
304.079	46291.56
304.145	46272.12
304.212	46316.63
304.278	46329.28
304.344	46370.09
304.41	46377.15
304.476	46405.25
304.542	46430.24
304.608	46504.5
304.674	46477.86
304.741	46496.08
304.807	46548.11
304.873	46617.12
304.939	46725.07
305.005	46716.26
305.071	46754.09
305.137	46837.77
305.203	46786.51
305.269	46819.46
305.335	46918.49
305.401	46957.37
305.467	46990.35
305.533	47066.07
305.599	47141.74
305.666	47226.79
305.732	47276.4
305.798	47370.35
305.864	47500.33
305.93	47594.29
305.996	47638.25
306.062	47695.55
306.128	47738.59
306.194	47749.21
306.259	47789.77
306.325	47775.53
306.391	47862.37
306.457	47938.98
306.523	47977.34
306.589	48123.45
306.655	48142.51
306.721	48110.92
306.787	48118.32
306.853	48226.19
306.919	48212.2
306.985	48233.22
307.051	48256.18
307.117	48265.93
307.183	48278.07
307.248	48214.27
307.314	48235.44
307.38	48281.96
307.446	48361.71
307.512	48369.85
307.578	48424.07
307.644	48457.23
307.709	48525.6
307.775	48565.21
307.841	48599.89
307.907	48640.47
307.973	48614.21
308.039	48646.84
308.104	48709.95
308.17	48744.96
308.236	48717.05
308.302	48774.73
308.368	48765.76
308.433	48805.8
308.499	48842.23
308.565	48842.47
308.631	48901.88
308.696	48871.11
308.762	48862.52
308.828	48876.72
308.894	48861.22
308.959	48844.78
309.025	48841.81
309.091	48861.04
309.156	48865.96
309.222	48914.53
309.288	48911.74
309.354	48872.29
309.419	48910.79
309.485	48888.5
309.551	48967.02
309.616	48955.21
309.682	48987.61
309.748	49007.61
309.813	49026.84
309.879	49024.64
309.945	49026.1
310.01	49029.72
310.076	49076.35
310.141	49098.65
310.207	49084.88
310.273	49123.22
310.338	49171.27
310.404	49152.93
310.469	49149.71
310.535	49146.54
310.601	49101.88
310.666	49172.18
310.732	49262.59
310.797	49262.74
310.863	49278.01
310.928	49279.18
310.994	49341.26
311.059	49365.52
311.125	49409.25
311.191	49504.07
311.256	49513.63
311.322	49583.96
311.387	49562.68
311.453	50191.01
311.518	50252.1
311.584	50297.65
311.649	50378.99
311.715	50376.65
311.78	50430.07
311.846	50436.32
311.911	50504.39
311.976	50556.27
312.042	50536.69
312.107	50502.12
312.173	50519.55
312.238	50544.59
312.304	50579.13
312.369	50583.62
312.434	50579.37
312.5	50593.92
312.565	50503.54
312.631	50566.56
312.696	50574.96
312.761	50628.6
312.827	50064.39
312.892	50156.44
312.958	50191.87
313.023	50211.71
313.088	50255.01
313.154	50260.24
313.219	50274.15
313.284	50275.42
313.35	50295.16
313.415	50284.17
313.48	50318.73
313.546	50366.13
313.611	50431.34
313.676	50425.72
313.741	50438.86
313.807	50504.24
313.872	50555.97
313.937	50618.25
314.003	50686.28
314.068	50726.21
314.133	50778.15
314.198	50756.94
314.264	50695.98
314.329	50684.35
314.394	50708.9
314.459	50740.41
314.525	50840.82
314.59	50865.88
314.655	50864.75
314.72	50919.89
314.785	50980.91
314.851	50997.08
314.916	50976.89
314.981	50960.47
315.046	50955.73
315.111	50956.66
315.176	50950.16
315.242	50979.54
315.307	51011.66
315.372	50980.17
315.437	50987.6
315.502	51004.47
315.567	51082.68
315.632	51072.42
315.698	51115.84
315.763	51114.37
315.828	51098.98
315.893	51107.83
315.958	51116.53
316.023	51113.2
316.088	51065.69
316.153	50996.52
316.218	50984.55
316.283	50918.58
316.348	50866.81
316.413	50869.25
316.479	50833.27
316.544	50705.29
316.609	50583.75
316.674	50436.86
316.739	50323.1
316.804	50189.65
316.869	50038.86
316.934	49879.54
316.999	49735.74
317.064	49524.02
317.129	49330.23
317.194	49168.16
317.259	48951.9
317.324	48734.59
317.389	48542.56
317.454	48365.87
317.518	48219.31
317.583	48089.26
317.648	47968.93
317.713	47800.85
317.778	47544.15
317.843	47377.83
317.908	47191.66
317.973	47010.4
318.038	46859.97
318.103	46655.88
318.168	46489.43
318.233	46322.7
318.297	46089.84
318.362	45896.33
318.427	45696.71
318.492	45553.08
318.557	45329.11
318.622	45169.14
318.687	45021.46
318.751	44805.72
318.816	44610.95
318.881	44403.53
318.946	44130.97
319.011	43875.69
319.075	43637.39
319.14	43431.86
319.205	43182.43
319.27	42992.64
319.335	42749.55
319.399	42516.02
319.464	42323.87
319.529	42032.46
319.594	41794.35
319.658	41607.19
319.723	41363.9
319.788	41163.46
319.853	40871.18
319.917	40663.05
319.982	40364.2
320.047	40119.57
320.112	39924.92
320.176	39650.1
320.241	39412.23
320.306	39196.29
320.37	38957.21
320.435	38754.02
320.5	38540.79
320.564	38302.29
320.629	38045.22
320.694	37817.73
320.758	37553.79
320.823	37277.74
320.888	37071.2
320.952	36770.81
321.017	36493.7
321.082	36228.85
321.146	35985.94
321.211	35750.03
321.275	35482.1
321.34	35206.38
321.405	34923.67
321.469	34636.59
321.534	34361.48
321.598	34075.31
321.663	33839.13
321.727	33595.19
321.792	33290.35
321.857	33006.85
321.921	32735.3
321.986	32448.64
322.05	32120.66
322.115	31867.77
322.179	31590.41
322.244	31270.66
322.308	31036.07
322.373	30745.62
322.437	30491.54
322.502	30255.7
322.566	29968.18
322.631	29711.32
322.695	29452.37
322.76	29178.94
322.824	28915.64
322.889	28631.68
322.953	28337.99
323.018	27976.57
323.082	27623.15
323.146	27314.1
323.211	26991.38
323.275	26709.62
323.34	26423.65
323.404	26173.89
323.468	25865.35
323.533	25582.44
323.597	25285.85
323.662	24962.5
323.726	24692.28
323.79	24387.57
323.855	24017.19
323.919	23705.52
323.983	23412.72
324.048	22968.71
324.112	23116.55
324.177	22209.55
324.241	21002.15
324.305	19812.15
324.37	18640.12
324.434	17504.99
324.498	17186.67
324.562	16841.57
324.627	16432.8
324.691	16034.21
324.755	15582.05
324.82	15085.21
324.884	14538.86
324.948	13995.6
325.012	13344
325.077	12549.35
