Data from 20250701_urea_2M_exp3_MAYP1162681_21-49-51-122.txt Node
Date: Tue Jul 01 21:49:51 BST 2025
User: adleo
Spectrometer: MAYP116268
Trigger mode: 0
Integration Time (sec): 4.000000E0
Scans to average: 1
Electric dark correction enabled: true
Nonlinearity correction enabled: true
Boxcar width: 10
XAxis mode: Wavelengths
Number of Pixels in Spectrum: 2068
>>>>>Begin Spectral Data<<<<<
179.565	3869.14
179.642	4067.92
179.718	4227.9
179.795	4369.78
179.871	4487.97
179.948	4555.19
180.024	4634.05
180.101	4716.85
180.177	4769.84
180.254	4851.93
180.33	4932.89
180.407	5216.99
180.483	5519.82
180.56	5826.63
180.636	6107.78
180.712	6073.11
180.789	6106.51
180.865	6146.03
180.942	6179.95
181.018	6219.93
181.095	6265.88
181.171	6281.29
181.248	6290.12
181.324	6345.35
181.4	6371.95
181.477	6412.09
181.553	6457.43
181.63	6527.69
181.706	6584.55
181.782	6610.7
181.859	6610.89
181.935	6628.28
182.011	6614.25
182.088	6669.97
182.164	6736.33
182.24	6786.35
182.317	6812.14
182.393	6806.23
182.469	6860.98
182.546	6909.98
182.622	6921.85
182.698	6910.65
182.775	6956.96
182.851	7006.54
182.927	6979.58
183.003	6959.56
183.08	6938.96
183.156	6970.04
183.232	6961
183.308	6921.7
183.385	6957.91
183.461	7016.82
183.537	7017.39
183.613	7063.28
183.69	7032.48
183.766	6995.13
183.842	7017.86
183.918	7040.05
183.995	7085.45
184.071	7089.2
184.147	7070.7
184.223	7033.68
184.299	7073.77
184.375	7032.4
184.452	7053.46
184.528	7179.29
184.604	7219.73
184.68	7260.66
184.756	7291.77
184.832	7306.72
184.908	7318.63
184.985	7308.87
185.061	7256.21
185.137	7293.84
185.213	7252.47
185.289	7262.75
185.365	7239.7
185.441	7237.48
185.517	7283.36
185.593	7271.15
185.669	7266.3
185.745	7300.13
185.822	7361.27
185.898	7333.68
185.974	7367.55
186.05	7335.05
186.126	7263.05
186.202	7237.64
186.278	7222.02
186.354	7186.2
186.43	7208.37
186.506	7206.11
186.582	7205.35
186.658	7230.51
186.734	7159.56
186.81	7167.14
186.886	7173.73
186.962	7216.63
187.038	7198.23
187.114	7171.73
187.19	7202.11
187.266	7172.37
187.341	7173.86
187.417	7142.29
187.493	7143.59
187.569	7151.66
187.645	7132.92
187.721	7091.3
187.797	7123.1
187.873	7139.97
187.949	7121.28
188.025	7099.89
188.101	7112.52
188.176	7138.47
188.252	7121.56
188.328	7148.64
188.404	7145.32
188.48	7122.75
188.556	7094.97
188.632	7096.31
188.707	7098.04
188.783	7084.87
188.859	7065.76
188.935	7026.16
189.011	7054.98
189.086	7030.82
189.162	7007.13
189.238	6993.73
189.314	6984.99
189.39	6962.88
189.465	6938.95
189.541	6997.3
189.617	6944.36
189.693	6927.16
189.768	6938.31
189.844	7024.38
189.92	6993.79
189.996	7031.71
190.071	7076.73
190.147	7075.14
190.223	7106.82
190.298	7083.36
190.374	7040.22
190.45	7083.35
190.526	7113.29
190.601	7095.84
190.677	7107.56
190.753	7199.56
190.828	7219.44
190.904	7275.01
190.98	7331.11
191.055	7366.63
191.131	7332.06
191.207	7408.71
191.282	7440.03
191.358	7399.81
191.433	7343.78
191.509	7392.67
191.585	7380.94
191.66	7378.39
191.736	7403.28
191.811	7370.74
191.887	7424.45
191.963	7505.88
192.038	7518.04
192.114	7521.6
192.189	7536.21
192.265	7522.04
192.34	7450.46
192.416	7443.74
192.491	7429.21
192.567	7432.53
192.642	7448.07
192.718	7446.53
192.793	7397.01
192.869	7382.6
192.944	7395.57
193.02	7424.51
193.095	7439.03
193.171	7452.73
193.246	7455.18
193.322	7452.15
193.397	7452.35
193.473	7396.52
193.548	7333.15
193.624	7355.65
193.699	7350.22
193.775	7403.46
193.85	7408.74
193.925	7435.81
194.001	7439.56
194.076	7412.59
194.152	7378.64
194.227	7347.19
194.302	7315.92
194.378	7329.33
194.453	7315.3
194.529	7355.4
194.604	7308.67
194.679	7286.37
194.755	7226.8
194.83	7272.16
194.905	7260.38
194.981	7297.06
195.056	7278.56
195.131	7302.69
195.207	7299.61
195.282	7267.27
195.357	7198.18
195.433	7250.99
195.508	7209.12
195.583	7232.82
195.659	7281.95
195.734	7302.92
195.809	7296.09
195.884	7323.61
195.96	7326.21
196.035	7386.82
196.11	7373.11
196.185	7411.52
196.261	7420.45
196.336	7527.31
196.411	7468.4
196.486	7490.51
196.561	7465.31
196.637	7494.43
196.712	7544.74
196.787	7551.76
196.862	7603.82
196.937	7644.15
197.013	7662.47
197.088	7696.26
197.163	7774.35
197.238	7831.86
197.313	7834.27
197.388	7885.09
197.464	7994.3
197.539	8036.56
197.614	8008.92
197.689	8049.47
197.764	8099.98
197.839	8169.05
197.914	8146.2
197.989	8225.52
198.065	8274.53
198.14	8447.49
198.215	8541.12
198.29	8585.5
198.365	8632.56
198.44	8672.4
198.515	8763.95
198.59	8816.41
198.665	8912.76
198.74	8930.82
198.815	8937.75
198.89	9015.82
198.965	9119.34
199.04	9105.81
199.115	9159
199.19	9308.79
199.265	9320.63
199.34	9360.16
199.415	9486.6
199.49	9563.52
199.565	9593.61
199.64	9677.26
199.715	9665.02
199.79	9684.81
199.865	9704.56
199.94	9695.12
200.015	9800.94
200.09	9823.87
200.165	9844.72
200.24	9869
200.315	10009.03
200.39	10058.21
200.464	10078.2
200.539	10076.22
200.614	10125.15
200.689	10206.37
200.764	10230.66
200.839	10298.8
200.914	10311.8
200.989	10272.05
201.063	10320.94
201.138	10265.82
201.213	10269.63
201.288	10202.44
201.363	10221.66
201.438	10224.35
201.512	10284.88
201.587	10222.83
201.662	10235.31
201.737	10276.21
201.812	10305.6
201.886	10191.87
201.961	10227.72
202.036	10188.33
202.111	10179.18
202.186	10083.23
202.26	10020.36
202.335	9941.01
202.41	9915.58
202.485	9858.67
202.559	9786.42
202.634	9696.12
202.709	9729.52
202.784	9650.39
202.858	9657.38
202.933	9591.93
203.008	9569.2
203.082	9500.92
203.157	9496.59
203.232	9348.2
203.306	9274.65
203.381	9158.2
203.456	9081.6
203.53	8998.92
203.605	8926.8
203.68	8850.96
203.754	8832.78
203.829	8781.07
203.904	8713.4
203.978	8664.92
204.053	8682.78
204.127	8638.65
204.202	8628.02
204.277	8560.9
204.351	8539.72
204.426	8509.54
204.5	8479.7
204.575	8355.93
204.65	8393.63
204.724	8372.15
204.799	8399.75
204.873	8384.83
204.948	8377.85
205.022	8334.57
205.097	8304.18
205.171	8349.88
205.246	8373.13
205.32	8363.18
205.395	8361.74
205.469	8327.7
205.544	8352.39
205.618	8288.92
205.693	8331.12
205.767	8288.69
205.842	8364.58
205.916	8343.7
205.991	8311.32
206.065	8331.38
206.14	8384.74
206.214	8359.07
206.289	8331.45
206.363	8374.46
206.438	8384.09
206.512	8408.87
206.586	8477.57
206.661	8500.2
206.735	8427.2
206.81	8436.78
206.884	8495.8
206.958	8452.41
207.033	8511.47
207.107	8535.64
207.181	8647.37
207.256	8624.75
207.33	8687.63
207.405	8734.35
207.479	8797.73
207.553	8819.04
207.628	8766.71
207.702	8809.15
207.776	8788.55
207.851	8794.04
207.925	8845.8
207.999	8835.02
208.073	8823.9
208.148	8830.02
208.222	8792.52
208.296	8902.58
208.371	8951.81
208.445	8991
208.519	9086.58
208.593	9125.81
208.668	9110.59
208.742	9121.77
208.816	9126.58
208.89	9178.64
208.965	9172.04
209.039	9203.01
209.113	9265.69
209.187	9338.24
209.261	9314.99
209.336	9382.11
209.41	9456.22
209.484	9455.02
209.558	9537.41
209.632	9589.89
209.707	9630.39
209.781	9708.74
209.855	9766.83
209.929	9826.97
210.003	9848.69
210.077	9848.16
210.151	10017.88
210.226	10134.13
210.3	10223.29
210.374	10310.02
210.448	10321.58
210.522	10361.38
210.596	10401.56
210.67	10435.23
210.744	10593.79
210.818	10713.37
210.892	10789.59
210.966	10768.4
211.041	10827.28
211.115	10808.82
211.189	10888.8
211.263	10940.89
211.337	10964.4
211.411	11006.61
211.485	10985.26
211.559	11017.64
211.633	11025.87
211.707	10919.21
211.781	10949.24
211.855	10821.31
211.929	10783.93
212.003	10718.09
212.077	10751.15
212.151	10782.38
212.225	10807.15
212.299	10768.59
212.373	10724.65
212.447	10700.94
212.52	10796.87
212.594	10798.85
212.668	10835.76
212.742	10788.48
212.816	10772.68
212.89	10744.06
212.964	10731.14
213.038	10737.36
213.112	10777.17
213.186	10820
213.26	10732.2
213.333	10563.14
213.407	10580.92
213.481	10588.04
213.555	10624.45
213.629	10569.99
213.703	10505.86
213.777	10500.17
213.85	10425.1
213.924	10534.93
213.998	10530.25
214.072	10493.96
214.146	10437.68
214.219	10419.13
214.293	10384.79
214.367	10372.26
214.441	10398.95
214.515	10353.13
214.588	10256.25
214.662	10121.47
214.736	10037.08
214.81	10060.57
214.883	10080.36
214.957	10024.65
215.031	9967.59
215.105	9869.89
215.178	9802.94
215.252	9763.07
215.326	9650.95
215.4	9563.28
215.473	9373.54
215.547	9284.24
215.621	9216.45
215.694	9207.06
215.768	9104.69
215.842	9038.5
215.915	8967.66
215.989	8846.07
216.063	8789.68
216.136	8765.61
216.21	8740.78
216.284	8751.27
216.357	8717.1
216.431	8672.33
216.504	8664.78
216.578	8723.32
216.652	8732.94
216.725	8711.04
216.799	8718.6
216.873	8700.84
216.946	8708.3
217.02	8667.66
217.093	8631.04
217.167	8530.37
217.24	8451.47
217.314	8410.4
217.387	8362.65
217.461	8313.81
217.535	8340.47
217.608	8270.22
217.682	8245.59
217.755	8256.6
217.829	8193.85
217.902	8172.97
217.976	8153.83
218.049	8110.87
218.123	8028.03
218.196	8028.27
218.27	7989.3
218.343	7914.27
218.417	7912.01
218.49	7884.69
218.563	7929.61
218.637	7941.59
218.71	8012.6
218.784	8031.8
218.857	8069.7
218.931	8094.02
219.004	8105.33
219.077	8119.48
219.151	8136.36
219.224	8121.54
219.298	8114.8
219.371	8169.61
219.444	8130.86
219.518	8138.84
219.591	8156.83
219.665	8257.11
219.738	8269.47
219.811	8251.87
219.885	8299.02
219.958	8329.09
220.031	8341.02
220.105	8368.6
220.178	8372.16
220.251	8347.13
220.325	8373.07
220.398	8390.11
220.471	8413.63
220.544	8443.46
220.618	8419.25
220.691	8452.69
220.764	8469.24
220.838	8498.74
220.911	8477.7
220.984	8571.71
221.057	8607.22
221.131	8627.14
221.204	8532.92
221.277	8605.9
221.35	8731.37
221.424	8728.68
221.497	8742.83
221.57	8760.63
221.643	8788.7
221.716	8835.93
221.79	8840.26
221.863	8857.4
221.936	8865.73
222.009	8871.84
222.082	8902.07
222.155	8910.68
222.229	8976.89
222.302	9016.89
222.375	9026.9
222.448	9071.48
222.521	9074.61
222.594	9072.49
222.667	9045.98
222.74	9104.75
222.814	9094.16
222.887	9078.5
222.96	9129.4
223.033	9176.93
223.106	9203.25
223.179	9234.46
223.252	9242.75
223.325	9275.24
223.398	9280.83
223.471	9310.34
223.544	9339.79
223.617	9355.2
223.69	9376.29
223.763	9334.73
223.837	9355.48
223.91	9381.1
223.983	9327.66
224.056	9287.76
224.129	9319.92
224.202	9380.65
224.275	9361.1
224.348	9329.86
224.42	9291.05
224.493	9231.92
224.566	9199.08
224.639	9219.73
224.712	9189.96
224.785	9176.19
224.858	9165.74
224.931	9154.57
225.004	9113.31
225.077	9103.2
225.15	9012.58
225.223	9016.04
225.296	9097.64
225.369	9035.16
225.442	9003
225.514	9025.71
225.587	9051.75
225.66	9052.86
225.733	9053.82
225.806	9071.39
225.879	9068.31
225.952	9036.26
226.025	9086.28
226.097	9142.5
226.17	9134.45
226.243	9062.69
226.316	9061.44
226.389	9063.46
226.461	9079.35
226.534	9096.48
226.607	9092.63
226.68	9183.21
226.753	9177.82
226.825	9094.2
226.898	9158.46
226.971	9159.23
227.044	9179.02
227.117	9186.92
227.189	9207.14
227.262	9237.58
227.335	9253.81
227.407	9248.03
227.48	9280.13
227.553	9293.52
227.626	9270.88
227.698	9275.45
227.771	9316.98
227.844	9289.01
227.916	9309.62
227.989	9275.05
228.062	9273.22
228.134	9362.99
228.207	9358.03
228.28	9348.25
228.352	9362.27
228.425	9368.86
228.498	9418.85
228.57	9395.6
228.643	9454.79
228.716	9454.7
228.788	9443.43
228.861	9439.33
228.934	9506.46
229.006	9514.45
229.079	9516.66
229.151	9509.73
229.224	9473.29
229.296	9505.6
229.369	9619.9
229.442	9677.47
229.514	9657.01
229.587	9703.53
229.659	9627.28
229.732	9640.38
229.804	9684.39
229.877	9764.17
229.949	9792.88
230.022	9846.41
230.094	9844.01
230.167	9835.19
230.239	9788.19
230.312	9777.07
230.384	9848.37
230.457	9843.46
230.529	9854.29
230.602	9850.92
230.674	9858.97
230.747	9908.55
230.819	9937.5
230.892	9812.6
230.964	9804.32
231.037	9835.22
231.109	9827.46
231.181	9869.94
231.254	9833.72
231.326	9819.13
231.399	9790.65
231.471	9764.59
231.544	9685.34
231.616	9738.11
231.688	9738.21
231.761	9728.39
231.833	9719.82
231.905	9633.49
231.978	9630.75
232.05	9619.58
232.122	9631.91
232.195	9603.59
232.267	9644.96
232.339	9622.9
232.412	9696.62
232.484	9675.04
232.556	9647.6
232.629	9718.33
232.701	9735.04
232.773	9749.73
232.846	9737.69
232.918	9751.71
232.99	9771.85
233.062	9815.92
233.135	9831.77
233.207	9793.53
233.279	9844.13
233.351	9876.44
233.424	9875.87
233.496	9849.14
233.568	9932.47
233.64	9891.87
233.713	9914.55
233.785	9906.08
233.857	9918.45
233.929	9862.11
234.001	9933.91
234.074	9999.1
234.146	9925.44
234.218	9924.23
234.29	9921.49
234.362	9910.41
234.434	9856.17
234.507	9818.31
234.579	9764.12
234.651	9735.8
234.723	9770.09
234.795	9789.31
234.867	9782.43
234.939	9850.1
235.012	9868.89
235.084	9875.63
235.156	9913.92
235.228	9893.35
235.3	9873.89
235.372	9887.33
235.444	9947.39
235.516	9858.59
235.588	9869.96
235.66	9889.32
235.732	9862.78
235.804	10068.65
235.876	10115.31
235.948	10185.75
236.02	10197.26
236.092	10209.35
236.164	10224.18
236.236	10222.16
236.308	10217.53
236.38	10249.09
236.452	10220.52
236.524	10249.08
236.596	10311.5
236.668	10345.71
236.74	10371.72
236.812	10405.1
236.884	10437.09
236.956	10449.91
237.028	10447.07
237.1	10425.58
237.172	10496.32
237.244	10572.73
237.316	10453.24
237.388	10441.68
237.46	10419.32
237.532	10485.76
237.604	10478.24
237.675	10561.07
237.747	10611.28
237.819	10602.32
237.891	10608.3
237.963	10600.69
238.035	10591.2
238.107	10473.76
238.178	10539.55
238.25	10544.65
238.322	10634.15
238.394	10585.78
238.466	10593.63
238.538	10644.94
238.609	10693.3
238.681	10639.43
238.753	10624.44
238.825	10645.74
238.897	10678.93
238.968	10760.34
239.04	10741.01
239.112	10862.38
239.184	10816.36
239.255	10806.05
239.327	10840.44
239.399	10861.84
239.471	10917.92
239.542	10957.34
239.614	11035.1
239.686	10942.14
239.758	10998.86
239.829	10959.77
239.901	11034.89
239.973	11048
240.044	11081.1
240.116	11092.14
240.188	11110.01
240.259	11126.3
240.331	11115.46
240.403	11155.26
240.474	11104.27
240.546	11101.28
240.618	11039.16
240.689	11038.96
240.761	11066.82
240.833	11136.17
240.904	11134.05
240.976	11127.35
241.048	11144.36
241.119	11175.79
241.191	11230.38
241.262	11295.84
241.334	11310.06
241.405	11312.08
241.477	11313.24
241.549	11321.87
241.62	11349.15
241.692	11398.98
241.763	11458.51
241.835	11483.04
241.906	11500.53
241.978	11473.21
242.049	11539.38
242.121	11601.45
242.192	11674.61
242.264	11640.73
242.335	11586.32
242.407	11640.45
242.478	11648.35
242.55	11672.01
242.621	11660.49
242.693	11655.63
242.764	11650.52
242.836	11651.72
242.907	11685.75
242.979	11719.63
243.05	11740.21
243.122	11768.7
243.193	11766.48
243.264	11689.27
243.336	11691.05
243.407	11726.77
243.479	11811.35
243.55	11828.61
243.622	11847.36
243.693	11844.52
243.764	11913.73
243.836	11898.93
243.907	11886.35
243.978	11892.81
244.05	11917.15
244.121	11871.46
244.192	11921.64
244.264	11871.03
244.335	11884.96
244.407	11835.84
244.478	11857.29
244.549	11852.18
244.62	11812.13
244.692	11809.62
244.763	11859.22
244.834	11850.35
244.906	11833.19
244.977	11857.72
245.048	11913.11
245.119	11889.69
245.191	11861.54
245.262	11802.98
245.333	11886.26
245.405	11901.63
245.476	11938.89
245.547	11962.37
245.618	12023.24
245.689	12034.04
245.761	12066.04
245.832	12075.78
245.903	12118.34
245.974	12145.04
246.045	12153.87
246.117	12247.52
246.188	12229.3
246.259	12213.69
246.33	12233.21
246.401	12239.72
246.473	12202.89
246.544	12187.22
246.615	12242.41
246.686	12253.84
246.757	12326.86
246.828	12297.94
246.899	12377
246.97	12338.24
247.042	12327.49
247.113	12369.77
247.184	12464.25
247.255	12459.43
247.326	12483.1
247.397	12488.84
247.468	12499.15
247.539	12513.04
247.61	12457.79
247.681	12504.02
247.752	12559.74
247.823	12529.37
247.894	12538.72
247.965	12509.66
248.037	12497.46
248.108	12443.72
248.179	12454.32
248.25	12444.44
248.321	12479.92
248.392	12431.37
248.463	12524.98
248.534	12516.16
248.605	12536.94
248.675	12503.53
248.746	12527.68
248.817	12547.68
248.888	12572.9
248.959	12514.38
249.03	12545.71
249.101	12553.81
249.172	12547.3
249.243	12470.85
249.314	12546.44
249.385	12564.9
249.456	12595.07
249.527	12589.67
249.598	12615.08
249.669	12612.38
249.739	12634.07
249.81	12650.89
249.881	12600.18
249.952	12586.54
250.023	12591.46
250.094	12533.08
250.165	12504.45
250.235	12502.23
250.306	12500.35
250.377	12464.48
250.448	12493.41
250.519	12423.61
250.59	12482.56
250.66	12476.3
250.731	12545.56
250.802	12535.87
250.873	12551.92
250.944	12576.41
251.014	12563.49
251.085	12660.68
251.156	12686.56
251.227	12733.42
251.297	12777.62
251.368	12836.09
251.439	12879.77
251.51	12935.59
251.58	12919.54
251.651	12915.06
251.722	12965.77
251.792	12915.97
251.863	12925.66
251.934	12991.9
252.005	13108.89
252.075	13114.82
252.146	13172.57
252.217	13228.44
252.287	13281.42
252.358	13288.22
252.429	13361.92
252.499	13361.59
252.57	13370.26
252.641	13420.44
252.711	13425.17
252.782	13382.36
252.852	13463.3
252.923	13462.87
252.994	13469.57
253.064	13528.18
253.135	13502.68
253.205	13486.1
253.276	13564.43
253.347	13631.63
253.417	13608.59
253.488	13597.98
253.558	13584.58
253.629	13574.27
253.699	13593.5
253.77	13613.17
253.841	13608.44
253.911	13615.87
253.982	13631.49
254.052	13664.99
254.123	13674.87
254.193	13683.16
254.264	13825.99
254.334	13780.58
254.405	13747.66
254.475	13716.95
254.546	13723.12
254.616	13792.59
254.687	13824.98
254.757	13850.53
254.827	13848.55
254.898	13873.33
254.968	13873.09
255.039	13859.78
255.109	13902.21
255.18	13864.75
255.25	13792.68
255.321	13825.99
255.391	13786.75
255.461	13878.44
255.532	13790.03
255.602	13780.97
255.673	13722.69
255.743	13686.15
255.813	13611.53
255.884	13662.1
255.954	13701.96
256.024	13778.8
256.095	13783.14
256.165	13746.6
256.235	13764.15
256.306	13748.58
256.376	13793.75
256.446	13832.02
256.517	13865.67
256.587	13906.16
256.657	13935.96
256.728	13960.4
256.798	13970.47
256.868	13969.31
256.938	13932.39
257.009	13977.85
257.079	14013.66
257.149	14113.79
257.219	14047.84
257.29	14099.52
257.36	14039.6
257.43	14077.63
257.5	13995.06
257.571	13984.55
257.641	14024.99
257.711	13988.93
257.781	14022.82
257.852	14044.08
257.922	13986.33
257.992	14000.99
258.062	14006.05
258.132	14047.02
258.202	14054.06
258.273	14063.75
258.343	14138.03
258.413	14131.19
258.483	14131.77
258.553	14098.74
258.623	14074.35
258.693	14104.24
258.764	14168.31
258.834	14238.78
258.904	14258.69
258.974	14253.2
259.044	14264.04
259.114	14290.7
259.184	14328.93
259.254	14337.27
259.324	14279.47
259.394	14321.89
259.464	14394.68
259.535	14391.88
259.605	14385.52
259.675	14382.82
259.745	14422.2
259.815	14399.11
259.885	14395.64
259.955	14513.83
260.025	14506.02
260.095	14514.12
260.165	14551.33
260.235	14614.77
260.305	14601.08
260.375	14566.08
260.445	14663.36
260.515	14732.29
260.585	14782.08
260.655	14788.74
260.725	14831.3
260.795	14876.42
260.865	14950.89
260.934	14913.73
261.004	14943.23
261.074	14944.73
261.144	15002.57
261.214	15031.25
261.284	15025.61
261.354	15068.52
261.424	15023.84
261.494	15101.88
261.564	15120.01
261.634	15145.7
261.703	15075.08
261.773	15105.21
261.843	15138.04
261.913	15122.42
261.983	15055.46
262.053	15073.39
262.123	15065.15
262.192	15029.05
262.262	15075.03
262.332	15029.72
262.402	15069.2
262.472	15080
262.541	15018.92
262.611	15060.95
262.681	15046.64
262.751	15097.01
262.821	15096.96
262.89	15065.77
262.96	15088.52
263.03	15159.23
263.1	15174.22
263.169	15195.63
263.239	15223.44
263.309	15296.99
263.379	15334.54
263.448	15366.16
263.518	15387.18
263.588	15408.44
263.657	15487.01
263.727	15512.46
263.797	15517.66
263.867	15507.35
263.936	15466.76
264.006	15533.24
264.076	15534.2
264.145	15527.79
264.215	15508.31
264.285	15555.07
264.354	15510.15
264.424	15492.46
264.494	15443.82
264.563	15444.16
264.633	15530.44
264.702	15560.37
264.772	15501.47
264.842	15494.19
264.911	15528.75
264.981	15493.23
265.05	15500.22
265.12	15487.83
265.19	15507.11
265.259	15549.92
265.329	15589.92
265.398	15612.67
265.468	15715.29
265.537	15704.54
265.607	15742.57
265.676	15792.55
265.746	15811.64
265.815	15878.5
265.885	15896.28
265.955	15881.49
266.024	15875.32
266.094	15807.65
266.163	15869.67
266.232	15931.95
266.302	15944.09
266.371	15970.46
266.441	15991.52
266.51	16046.23
266.58	16052.35
266.649	16034.56
266.719	16099.53
266.788	16128.16
266.858	16211.59
266.927	16141.08
266.996	16168.6
267.066	16195.4
267.135	16162.33
267.205	16212.8
267.274	16226.77
267.343	16280.13
267.413	16301.43
267.482	16368.57
267.552	16440.53
267.621	16387.76
267.69	16340.86
267.76	16367.42
267.829	16390.17
267.898	16408.44
267.968	16379.04
268.037	16424.2
268.106	16471.57
268.176	16440.87
268.245	16452.82
268.314	16435.33
268.384	16504.97
268.453	16537.46
268.522	16568.59
268.592	16636.26
268.661	16617.71
268.73	16656.99
268.799	16643.4
268.869	16728.08
268.938	16677.42
269.007	16664.12
269.076	16696.03
269.146	16755.12
269.215	16780.76
269.284	16847.94
269.353	16837.43
269.422	16852.04
269.492	16843.22
269.561	16763.21
269.63	16795.12
269.699	16781.77
269.768	16804.42
269.838	16815.02
269.907	16853.77
269.976	16812.08
270.045	16754.58
270.114	16796.75
270.183	16801.96
270.253	16836.03
270.322	16785.23
270.391	16812.99
270.46	16881.77
270.529	16925.57
270.598	16960.37
270.667	16969.62
270.736	16951.98
270.806	16993.96
270.875	17061.43
270.944	17071.65
271.013	17196.57
271.082	17222.36
271.151	17269.34
271.22	17234.59
271.289	17245.44
271.358	17241.29
271.427	17283.22
271.496	17319.37
271.565	17318.55
271.634	17338.46
271.703	17465.68
271.772	17529.25
271.841	17544.14
271.91	17508.33
271.979	17530.12
272.048	17501.15
272.117	17552.24
272.186	17540
272.255	17582.6
272.324	17620.04
272.393	17666.31
272.462	17665.58
272.531	17683.03
272.6	17700.43
272.669	17770.6
272.738	17790.89
272.807	17834.11
272.876	17827.08
272.945	17969
273.013	18026.11
273.082	18092.42
273.151	17998.06
273.22	18034.59
273.289	18066.21
273.358	18159.17
273.427	18167.21
273.496	18231.65
273.564	18280.51
273.633	18349.04
273.702	18341.47
273.771	18354.72
273.84	18381.18
273.909	18424.84
273.977	18465.03
274.046	18470.14
274.115	18535.15
274.184	18524.69
274.253	18540.45
274.322	18616.59
274.39	18548.84
274.459	18542.28
274.528	18493.66
274.597	18516.69
274.665	18540.6
274.734	18610.57
274.803	18613.27
274.872	18635.77
274.94	18624.49
275.009	18757.37
275.078	18753.08
275.147	18788.69
275.215	18809.07
275.284	18873.26
275.353	18868.4
275.421	18836.16
275.49	18939.81
275.559	18950.27
275.627	18981.21
275.696	18996.25
275.765	19036.44
275.833	19060.96
275.902	19101.78
275.971	19193.73
276.039	19287.55
276.108	19348.27
276.177	19383.45
276.245	19391.74
276.314	19425.43
276.383	19498.92
276.451	19413.51
276.52	19463.63
276.588	19550.61
276.657	19613.98
276.725	19624.63
276.794	19670.99
276.863	19757.59
276.931	19718.56
277	19782.7
277.068	19851.42
277.137	19961.59
277.205	19996.38
277.274	20095.65
277.342	20182.4
277.411	20155.13
277.48	20157.87
277.548	20162.31
277.617	20200.57
277.685	20227.94
277.754	20284.95
277.822	20297.44
277.89	20393.97
277.959	20424
278.027	20404
278.096	20406.17
278.164	20545.03
278.233	20574.67
278.301	20580.79
278.37	20639.29
278.438	20634.72
278.507	20687.25
278.575	20642.42
278.643	20678.43
278.712	20660.02
278.78	20651.63
278.849	20739.1
278.917	20821.42
278.985	20850.48
279.054	20893.18
279.122	20973.09
279.191	21003.98
279.259	21033.48
279.327	20994.43
279.396	21087.03
279.464	21118.16
279.532	21192.82
279.601	21209.5
279.669	21241.12
279.737	21335.35
279.806	21395.31
279.874	21480.48
279.942	21514.07
280.011	21551.61
280.079	21618.04
280.147	21721.57
280.215	21784.67
280.284	21802.02
280.352	21790.06
280.42	21859.62
280.488	21882.56
280.557	21896.49
280.625	21957.91
280.693	22005.81
280.761	22065.39
280.83	22052.33
280.898	22147.63
280.966	22122.95
281.034	22056.47
281.102	22053.24
281.171	22059.51
281.239	22130.04
281.307	22137.52
281.375	22152.07
281.443	22275.68
281.512	22299.84
281.58	22360.84
281.648	22337.17
281.716	22388.5
281.784	22433.91
281.852	22453.97
281.92	22493.65
281.989	22575.08
282.057	22551.7
282.125	22733.23
282.193	22764.28
282.261	22804.44
282.329	22818.66
282.397	22880.41
282.465	22931.56
282.533	23035.89
282.601	23063.66
282.67	23024.98
282.738	23034.1
282.806	23113.12
282.874	23119.34
282.942	23172.39
283.01	23196.94
283.078	23268.63
283.146	23303.78
283.214	23375.05
283.282	23438.08
283.35	23525.67
283.418	23554.51
283.486	23623.46
283.554	23536.14
283.622	23573.61
283.69	23621.2
283.758	23650.81
283.826	23720.55
283.894	23809.63
283.962	23904.9
284.03	23987.14
284.098	24040.47
284.165	24078.37
284.233	24123.42
284.301	24145.85
284.369	24170.79
284.437	24183.91
284.505	24219.94
284.573	24316.94
284.641	24323.6
284.709	24400.17
284.777	24376.67
284.845	24444.51
284.912	24500.37
284.98	24565.25
285.048	24600.13
285.116	24668.69
285.184	24764.55
285.252	24804.5
285.319	24783.71
285.387	24795.63
285.455	24795.48
285.523	24870.12
285.591	24912.13
285.659	24954.98
285.726	25049.71
285.794	25046.67
285.862	25086.67
285.93	25130.81
285.997	25163.88
286.065	25188.77
286.133	25188.38
286.201	25236.2
286.269	25234.89
286.336	25251.88
286.404	25270.17
286.472	25351.35
286.539	25316.46
286.607	25301.11
286.675	25346.05
286.743	25437.25
286.81	25468.39
286.878	25553.19
286.946	25562.17
287.013	25610.9
287.081	25655.17
287.149	25636.1
287.216	25744.02
287.284	25775.78
287.352	25815.07
287.419	25847.27
287.487	25959.41
287.555	26015.76
287.622	26056.4
287.69	26121.72
287.758	26221.13
287.825	26254.1
287.893	26252.07
287.96	26319.15
288.028	26407.99
288.096	26468.74
288.163	26514.66
288.231	26522
288.298	26555.13
288.366	26657.9
288.433	26688.35
288.501	26710.52
288.569	26775.27
288.636	26796.52
288.704	26889.69
288.771	26978.27
288.839	26982.76
288.906	26996.72
288.974	27084.32
289.041	27125.75
289.109	27138.26
289.176	27200.74
289.244	27267.73
289.311	27365.5
289.379	27450.74
289.446	27500.9
289.514	27529.69
289.581	27571.39
289.649	27634.18
289.716	27685.64
289.783	27699.37
289.851	27816.76
289.918	27862.89
289.986	27930.11
290.053	27993.84
290.121	28032.17
290.188	28080.41
290.255	28228.93
290.323	28248.06
290.39	28268.37
290.458	28339.35
290.525	28428.71
290.592	28462.21
290.66	28510.97
290.727	28529.25
290.794	28625.36
290.862	28667.23
290.929	28733.12
290.996	28786.68
291.064	28859.82
291.131	28949.96
291.198	29037.96
291.266	29073.26
291.333	29124.68
291.4	29191.04
291.468	29295.18
291.535	29324.87
291.602	29381.41
291.669	29396.31
291.737	29474.24
291.804	29513.37
291.871	29612.13
291.938	29677.68
292.006	29806.17
292.073	29890.91
292.14	29984.95
292.207	29994.33
292.275	30049.87
292.342	30115.86
292.409	30253.25
292.476	30376.72
292.543	30396.02
292.611	30441.47
292.678	30542.46
292.745	30670.97
292.812	30735.44
292.879	30768.31
292.946	30826.27
293.014	30907.45
293.081	30993.51
293.148	31080.91
293.215	31174.63
293.282	31194.47
293.349	31272.86
293.416	31249.56
293.484	31333.08
293.551	31397.77
293.618	31495.31
293.685	31621.46
293.752	31656.12
293.819	31670.07
293.886	31673.85
293.953	31741.15
294.02	31829.97
294.087	31904.57
294.154	31925.01
294.221	32039.55
294.288	32079.5
294.356	32190.21
294.423	32270.06
294.49	32270.49
294.557	32354.11
294.624	32372.75
294.691	32502.2
294.758	32550.11
294.825	32619.38
294.892	32652.04
294.959	32698.65
295.026	32780.15
295.093	32803.61
295.16	32857.42
295.226	32911.11
295.293	33043
295.36	33106.62
295.427	33187.72
295.494	33264.27
295.561	33349.95
295.628	33469.91
295.695	33583.04
295.762	33641.02
295.829	33696.15
295.896	33817.36
295.963	33909.24
296.03	34006.23
296.096	34051.81
296.163	34148.88
296.23	34257.44
296.297	34352.8
296.364	34404.77
296.431	34471.26
296.498	34506.21
296.564	34640.12
296.631	34711.89
296.698	34712.86
296.765	34837.35
296.832	34854.67
296.899	34868.78
296.965	34978.79
297.032	34947.15
297.099	35049.63
297.166	35130.98
297.233	35173.43
297.299	35208.74
297.366	35256.33
297.433	35301.44
297.5	35387.13
297.566	35437.35
297.633	35489.22
297.7	35558.89
297.767	35613.5
297.833	35680.56
297.9	35753.67
297.967	35748.18
298.033	35842.03
298.1	35996.67
298.167	36010.3
298.234	36078.13
298.3	36174.41
298.367	36201.93
298.434	36287.16
298.5	36305.03
298.567	36339.24
298.634	36398.6
298.7	36491.43
298.767	36544.25
298.834	36648.89
298.9	36674.57
298.967	36699.51
299.033	36772.48
299.1	36868.03
299.167	36973.64
299.233	37006.5
299.3	37089.99
299.366	37195.8
299.433	37285.58
299.5	37237.47
299.566	37295.62
299.633	37390.15
299.699	37470.46
299.766	37512.99
299.832	37572.92
299.899	37648.92
299.965	37726.46
300.032	37770.15
300.099	37853.39
300.165	37921.57
300.232	37958.08
300.298	38018.34
300.365	38106.18
300.431	38173.6
300.498	38197.06
300.564	38261.21
300.631	38360.48
300.697	38460.78
300.763	38512.55
300.83	38556.46
300.896	38658.35
300.963	38751.12
301.029	38829.18
301.096	38878.78
301.162	38979.47
301.229	39011
301.295	39019.3
301.361	39093.24
301.428	39154.19
301.494	39143.6
301.561	39198.06
301.627	39262.91
301.693	39321.68
301.76	39385.96
301.826	39419.67
301.892	39504.7
301.959	39574.52
302.025	39600.61
302.092	39630.54
302.158	39706.86
302.224	39772.12
302.291	39792.43
302.357	39821.15
302.423	39837.67
302.49	39851.56
302.556	39927.37
302.622	39974.26
302.688	40062.84
302.755	40148.67
302.821	40227.52
302.887	40314.34
302.954	40352.54
303.02	40420.47
303.086	40484.18
303.152	40526.07
303.219	40542.34
303.285	40596.25
303.351	40668.62
303.417	40722.76
303.483	40742.39
303.55	40778.45
303.616	40811.65
303.682	40851.01
303.748	40896.45
303.815	41002.85
303.881	41097.29
303.947	41107.64
304.013	41159.69
304.079	41185.16
304.145	41156.19
304.212	41193.91
304.278	41209.56
304.344	41257.77
304.41	41262.97
304.476	41290.73
304.542	41313.91
304.608	41385.46
304.674	41388.76
304.741	41406.51
304.807	41465.33
304.873	41527.5
304.939	41625.51
305.005	41611.95
305.071	41659.24
305.137	41694.14
305.203	41653.3
305.269	41687.19
305.335	41754.72
305.401	41793.56
305.467	41821.13
305.533	41896.82
305.599	41962.26
305.666	42031.63
305.732	42062.94
305.798	42152.39
305.864	42272.65
305.93	42327.58
305.996	42367.4
306.062	42405.52
306.128	42441.36
306.194	42441.02
306.259	42497.33
306.325	42502.19
306.391	42574.24
306.457	42641.73
306.523	42696.62
306.589	42818.98
306.655	42817.08
306.721	42809.25
306.787	42812.65
306.853	42896.73
306.919	42886.04
306.985	42901.55
307.051	42923.04
307.117	42947.84
307.183	42970.11
307.248	42916.9
307.314	42988.45
307.38	43046.23
307.446	43105.07
307.512	43101.81
307.578	43164.3
307.644	43170.58
307.709	43210.71
307.775	43230.89
307.841	43261.19
307.907	43299.27
307.973	43272.22
308.039	43333.8
308.104	43403.35
308.17	43449.21
308.236	43452.66
308.302	43508.88
308.368	43512.91
308.433	43564.95
308.499	43603.38
308.565	43586.01
308.631	43635.96
308.696	43588.88
308.762	43580.9
308.828	43612.57
308.894	43603.62
308.959	43569.48
309.025	43580.04
309.091	43597.06
309.156	43639.48
309.222	43682.54
309.288	43680.3
309.354	43644.84
309.419	43667.47
309.485	43653.7
309.551	43720.4
309.616	43711.59
309.682	43743.99
309.748	43769.38
309.813	43790.93
309.879	43798.23
309.945	43830.91
310.01	43838.7
310.076	43885.58
310.141	43909.86
310.207	43908.3
310.273	43960.64
310.338	44025.13
310.404	44018.52
310.469	44022.46
310.535	44019.54
310.601	43975.85
310.666	44037.69
310.732	44134.84
310.797	44136.49
310.863	44139.56
310.928	44131.97
310.994	44185.87
311.059	44215.02
311.125	44244.55
311.191	44314.05
311.256	44313.46
311.322	44368.2
311.387	44344.36
311.453	45225.8
311.518	45233.25
311.584	45252.08
311.649	45309.1
311.715	45318.98
311.78	45364.66
311.846	45387.04
311.911	45441.69
311.976	45497.83
312.042	45479.15
312.107	45456.96
312.173	45463.43
312.238	45473.21
312.304	45515.4
312.369	45517.01
312.434	45504.36
312.5	45509.13
312.565	45430.48
312.631	45494.32
312.696	45484.68
312.761	45550.07
312.827	44731.06
312.892	44855.21
312.958	44888.55
313.023	44907.28
313.088	44926.89
313.154	44906.75
313.219	44892.25
313.284	44891.81
313.35	44904.95
313.415	44905.54
313.48	44921.6
313.546	44958.14
313.611	45027.64
313.676	45023.11
313.741	45030.85
313.807	45093
313.872	45145.76
313.937	45212.77
314.003	45280.1
314.068	45333.4
314.133	45383.44
314.198	45372.2
314.264	45322.96
314.329	45315.46
314.394	45335.03
314.459	45366.72
314.525	45468.97
314.59	45500.31
314.655	45478.75
314.72	45534.68
314.785	45589.14
314.851	45605.01
314.916	45592.35
314.981	45574.83
315.046	45570.64
315.111	45571.67
315.176	45559.88
315.242	45591.19
315.307	45617.14
315.372	45563.82
315.437	45552.97
315.502	45558.23
315.567	45642.22
315.632	45629.46
315.698	45673.28
315.763	45701.37
315.828	45696.07
315.893	45713.45
315.958	45728.25
316.023	45738.03
316.088	45697.97
316.153	45633.24
316.218	45632.31
316.283	45587.64
316.348	45541.41
316.413	45554.17
316.479	45516.85
316.544	45414.47
316.609	45316.59
316.674	45181.12
316.739	45066.98
316.804	44947.19
316.869	44808.41
316.934	44647.94
316.999	44520.07
317.064	44332.8
317.129	44150.23
317.194	43997.62
317.259	43790.89
317.324	43576.4
317.389	43394.59
317.454	43233.25
317.518	43104.37
317.583	42970.6
317.648	42856.52
317.713	42701.05
317.778	42453.9
317.843	42311.43
317.908	42157.71
317.973	41989.23
318.038	41858.94
318.103	41697.37
318.168	41552.99
318.233	41398.22
318.297	41190.08
318.362	41018.84
318.427	40832.82
318.492	40690.79
318.557	40482.25
318.622	40346.41
318.687	40224.61
318.751	40031.3
318.816	39856.47
318.881	39672.33
318.946	39424.2
319.011	39205.83
319.075	39011.04
319.14	38823.42
319.205	38610.86
319.27	38418.98
319.335	38198.69
319.399	37990.35
319.464	37820.01
319.529	37567.63
319.594	37351.52
319.658	37172.47
319.723	36946.06
319.788	36766.43
319.853	36502.99
319.917	36315.79
319.982	36051.14
320.047	35826.94
320.112	35658.63
320.176	35405.08
320.241	35197.24
320.306	35001.61
320.37	34769.54
320.435	34564.81
320.5	34383.54
320.564	34154.76
320.629	33914.18
320.694	33703.83
320.758	33468.69
320.823	33222.42
320.888	33040.12
320.952	32783.96
321.017	32546.1
321.082	32329.56
321.146	32116.6
321.211	31903.6
321.275	31678.15
321.34	31428.12
321.405	31184.13
321.469	30931.77
321.534	30697.74
321.598	30421.76
321.663	30215.42
321.727	30014.53
321.792	29752.9
321.857	29505.64
321.921	29271.27
321.986	29039.6
322.05	28745.37
322.115	28520.03
322.179	28271.07
322.244	27976.49
322.308	27772.38
322.373	27509.02
322.437	27262.62
322.502	27066.46
322.566	26815.11
322.631	26592.85
322.695	26359.15
322.76	26103.92
322.824	25881.21
322.889	25619.35
322.953	25373.3
323.018	25057.8
323.082	24728.69
323.146	24443.64
323.211	24150.17
323.275	23895.65
323.34	23632.32
323.404	23409.45
323.468	23137.73
323.533	22886.69
323.597	22622.98
323.662	22329.68
323.726	22091.9
323.79	21822.74
323.855	21485.94
323.919	21211.66
323.983	20933.08
324.048	20542.14
324.112	20741.07
324.177	19920.65
324.241	18846.84
324.305	17779.44
324.37	16729.07
324.434	15720.15
324.498	15446.72
324.562	15141.21
324.627	14781.22
324.691	14427.82
324.755	14036.57
324.82	13591.81
324.884	13108.23
324.948	12632.15
325.012	12054.88
325.077	11350.11
