Data from 20250701_urea_2M_exp3_MAYP1162681_16-29-48-678.txt Node
Date: Tue Jul 01 16:29:48 BST 2025
User: adleo
Spectrometer: MAYP116268
Trigger mode: 0
Integration Time (sec): 4.000000E0
Scans to average: 1
Electric dark correction enabled: true
Nonlinearity correction enabled: true
Boxcar width: 10
XAxis mode: Wavelengths
Number of Pixels in Spectrum: 2068
>>>>>Begin Spectral Data<<<<<
179.565	4152.86
179.642	4372.56
179.718	4536.58
179.795	4688.19
179.871	4812.26
179.948	4882.21
180.024	4962.36
180.101	5048.61
180.177	5107.96
180.254	5188.85
180.33	5274.04
180.407	5577.99
180.483	5897.38
180.56	6225.85
180.636	6526.39
180.712	6484.11
180.789	6523.06
180.865	6567.54
180.942	6604.22
181.018	6645.13
181.095	6694.73
181.171	6709.38
181.248	6713.6
181.324	6773.28
181.4	6803.02
181.477	6844
181.553	6895.37
181.63	6974.46
181.706	7037.51
181.782	7064.25
181.859	7067.42
181.935	7088.28
182.011	7074.15
182.088	7138.69
182.164	7206.05
182.24	7256.34
182.317	7291.22
182.393	7284.83
182.469	7336.68
182.546	7384.03
182.622	7394.36
182.698	7376.09
182.775	7423.29
182.851	7474.44
182.927	7445.11
183.003	7420.56
183.08	7400.57
183.156	7431.52
183.232	7425.03
183.308	7379.71
183.385	7410.41
183.461	7478.14
183.537	7481.85
183.613	7526.36
183.69	7489.2
183.766	7449.47
183.842	7480.15
183.918	7496.54
183.995	7542.45
184.071	7552.21
184.147	7532.54
184.223	7497.14
184.299	7543.6
184.375	7497.93
184.452	7516.93
184.528	7651.19
184.604	7694.73
184.68	7741.02
184.756	7768.73
184.832	7778.59
184.908	7797.23
184.985	7791.51
185.061	7730.12
185.137	7761.9
185.213	7720.71
185.289	7731.81
185.365	7708.26
185.441	7698.49
185.517	7751.27
185.593	7736.8
185.669	7730.93
185.745	7765.36
185.822	7829.47
185.898	7795.36
185.974	7835.02
186.05	7808.9
186.126	7731.87
186.202	7704.03
186.278	7685.91
186.354	7648.68
186.43	7673.65
186.506	7668.46
186.582	7668.51
186.658	7692.15
186.734	7620.82
186.81	7629.66
186.886	7639.61
186.962	7682.73
187.038	7665.33
187.114	7628.37
187.19	7658
187.266	7622.57
187.341	7626.66
187.417	7599.4
187.493	7601.85
187.569	7612.29
187.645	7592.43
187.721	7556.84
187.797	7588.47
187.873	7602.17
187.949	7581.99
188.025	7555.14
188.101	7567.06
188.176	7589.9
188.252	7576.59
188.328	7604.31
188.404	7610.36
188.48	7586.62
188.556	7561.57
188.632	7561.04
188.707	7572.3
188.783	7559.64
188.859	7540.62
188.935	7501.09
189.011	7528.59
189.086	7506.24
189.162	7473.35
189.238	7460.18
189.314	7450.38
189.39	7429.7
189.465	7404.13
189.541	7469.09
189.617	7413
189.693	7390.55
189.768	7399.55
189.844	7482.95
189.92	7451.77
189.996	7480.67
190.071	7529.95
190.147	7525.82
190.223	7569.68
190.298	7535.68
190.374	7487.17
190.45	7535.13
190.526	7567.06
190.601	7546.19
190.677	7548.84
190.753	7651.22
190.828	7664.54
190.904	7710.13
190.98	7767.55
191.055	7808.57
191.131	7775.48
191.207	7859.28
191.282	7896.87
191.358	7861.68
191.433	7808.51
191.509	7860.84
191.585	7848.33
191.66	7841.99
191.736	7875.07
191.811	7835.58
191.887	7900.04
191.963	7985.79
192.038	7999.69
192.114	8000.36
192.189	8018.25
192.265	8008.59
192.34	7930.38
192.416	7922.93
192.491	7910.14
192.567	7917.69
192.642	7930.83
192.718	7930.35
192.793	7877.35
192.869	7861.38
192.944	7875.51
193.02	7905.92
193.095	7917.89
193.171	7939.34
193.246	7942.71
193.322	7932.51
193.397	7933.67
193.473	7877.66
193.548	7812.1
193.624	7836.2
193.699	7828.94
193.775	7883.02
193.85	7888.79
193.925	7916.98
194.001	7924.19
194.076	7898.12
194.152	7858.33
194.227	7823.41
194.302	7788.47
194.378	7806.93
194.453	7797.8
194.529	7839.98
194.604	7789
194.679	7766.35
194.755	7697.95
194.83	7742.65
194.905	7731.88
194.981	7767.95
195.056	7742.96
195.131	7765.36
195.207	7762.24
195.282	7727.62
195.357	7657.33
195.433	7715.9
195.508	7671.9
195.583	7694.74
195.659	7744.62
195.734	7766.22
195.809	7765.98
195.884	7798.51
195.96	7799.24
196.035	7854.39
196.11	7839.14
196.185	7884.83
196.261	7898.24
196.336	8016.94
196.411	7961.99
196.486	7983.82
196.561	7954.77
196.637	7988.04
196.712	8052.28
196.787	8051.27
196.862	8112.15
196.937	8148.75
197.013	8173.39
197.088	8209.94
197.163	8286.56
197.238	8343.9
197.313	8346.89
197.388	8399.81
197.464	8512.92
197.539	8552.71
197.614	8529.09
197.689	8572.73
197.764	8634.74
197.839	8707.45
197.914	8681.07
197.989	8765.58
198.065	8812.79
198.14	9000.11
198.215	9094.55
198.29	9129.9
198.365	9182.03
198.44	9216.84
198.515	9319.54
198.59	9367.55
198.665	9467.84
198.74	9497.8
198.815	9511
198.89	9590.34
198.965	9693.23
199.04	9682
199.115	9742.04
199.19	9897
199.265	9908.51
199.34	9939.48
199.415	10066
199.49	10144.93
199.565	10176.43
199.64	10264.05
199.715	10250.99
199.79	10277.53
199.865	10304.03
199.94	10300.9
200.015	10424.19
200.09	10443.94
200.165	10468.17
200.24	10488.65
200.315	10632.13
200.39	10686.14
200.464	10709.12
200.539	10715
200.614	10762.31
200.689	10845.24
200.764	10869.09
200.839	10934.41
200.914	10950.6
200.989	10905.2
201.063	10957.29
201.138	10893.04
201.213	10890.44
201.288	10815.28
201.363	10830.46
201.438	10830.07
201.512	10890.43
201.587	10816.8
201.662	10828.36
201.737	10872.74
201.812	10904.11
201.886	10787.28
201.961	10819.72
202.036	10780.5
202.111	10776.84
202.186	10677.82
202.26	10614.16
202.335	10534.9
202.41	10513.79
202.485	10452.48
202.559	10383.92
202.634	10279.14
202.709	10318.62
202.784	10251.38
202.858	10254.02
202.933	10190.34
203.008	10161.15
203.082	10086.97
203.157	10083.98
203.232	9926.25
203.306	9843.76
203.381	9724.68
203.456	9644.2
203.53	9559.58
203.605	9485.02
203.68	9391.95
203.754	9366.26
203.829	9306.25
203.904	9230.61
203.978	9182.83
204.053	9198.24
204.127	9152.36
204.202	9149.57
204.277	9078.9
204.351	9052.57
204.426	9029.16
204.5	8991.85
204.575	8868.37
204.65	8906.18
204.724	8878.09
204.799	8910.9
204.873	8905.12
204.948	8901.37
205.022	8851.8
205.097	8816.45
205.171	8867.52
205.246	8898.53
205.32	8896.36
205.395	8898.1
205.469	8868.9
205.544	8892.54
205.618	8828.23
205.693	8870.83
205.767	8824.44
205.842	8906.47
205.916	8885.64
205.991	8850.21
206.065	8874.42
206.14	8927.03
206.214	8910.89
206.289	8881.09
206.363	8923.74
206.438	8926
206.512	8953.78
206.586	9026.31
206.661	9057.57
206.735	8983.75
206.81	8982.6
206.884	9036.98
206.958	8990.54
207.033	9050.69
207.107	9073.86
207.181	9192.75
207.256	9169.64
207.33	9242.04
207.405	9284.92
207.479	9354.54
207.553	9383.8
207.628	9323.99
207.702	9373.28
207.776	9348.05
207.851	9360.76
207.925	9416.63
207.999	9402.72
208.073	9396.07
208.148	9404.36
208.222	9362.94
208.296	9475.76
208.371	9544.27
208.445	9584.59
208.519	9686.12
208.593	9724.65
208.668	9712.8
208.742	9716.8
208.816	9720.6
208.89	9771.18
208.965	9766.51
209.039	9796.57
209.113	9858.9
209.187	9937.68
209.261	9919.63
209.336	9990.48
209.41	10068.61
209.484	10071.07
209.558	10155.03
209.632	10201.17
209.707	10241.93
209.781	10317.89
209.855	10373.01
209.929	10430.42
210.003	10449.35
210.077	10450.79
210.151	10632.88
210.226	10757.01
210.3	10859.15
210.374	10948.02
210.448	10958.04
210.522	10993.61
210.596	11030.23
210.67	11057.36
210.744	11233.4
210.818	11358.42
210.892	11430.23
210.966	11410.52
211.041	11470.95
211.115	11461.85
211.189	11551
211.263	11610.28
211.337	11636.97
211.411	11685.8
211.485	11667.09
211.559	11703.86
211.633	11709.45
211.707	11588.42
211.781	11610.44
211.855	11477.71
211.929	11450.63
212.003	11380.64
212.077	11413.32
212.151	11457.03
212.225	11487.78
212.299	11442.95
212.373	11391
212.447	11368.15
212.52	11467.87
212.594	11469.89
212.668	11503.58
212.742	11445.55
212.816	11424.15
212.89	11400.35
212.964	11388.73
213.038	11388.63
213.112	11430.76
213.186	11484.15
213.26	11403.27
213.333	11228.92
213.407	11234.8
213.481	11235.38
213.555	11271.79
213.629	11222.2
213.703	11152.12
213.777	11142
213.85	11057.56
213.924	11177.38
213.998	11173.05
214.072	11136.51
214.146	11079.45
214.219	11052.94
214.293	11027.79
214.367	11016.46
214.441	11038.87
214.515	10989.23
214.588	10894.35
214.662	10757.51
214.736	10661.1
214.81	10673.91
214.883	10699.58
214.957	10655.65
215.031	10590.1
215.105	10488.23
215.178	10415.53
215.252	10373.08
215.326	10259.73
215.4	10166.16
215.473	9958.49
215.547	9860.26
215.621	9788.45
215.694	9781.66
215.768	9672.04
215.842	9595.66
215.915	9520.6
215.989	9396.72
216.063	9329.66
216.136	9300.04
216.21	9269.57
216.284	9278.14
216.357	9247.47
216.431	9198.88
216.504	9187.76
216.578	9246.85
216.652	9263.79
216.725	9241.01
216.799	9242.31
216.873	9221.9
216.946	9229.07
217.02	9188.22
217.093	9150.24
217.167	9040.33
217.24	8947.24
217.314	8919.96
217.387	8870.6
217.461	8815.82
217.535	8840.8
217.608	8772.21
217.682	8741.36
217.755	8757.96
217.829	8699.37
217.902	8681.08
217.976	8657.21
218.049	8607.69
218.123	8526.21
218.196	8522.32
218.27	8482.94
218.343	8408.71
218.417	8406.78
218.49	8383.88
218.563	8431.56
218.637	8447.49
218.71	8526.29
218.784	8558.54
218.857	8588.61
218.931	8612.13
219.004	8627.05
219.077	8638.9
219.151	8661.03
219.224	8650.49
219.298	8639.9
219.371	8689.96
219.444	8655.75
219.518	8670.14
219.591	8689.63
219.665	8800.3
219.738	8817.15
219.811	8795.64
219.885	8846.38
219.958	8885.56
220.031	8889.08
220.105	8917.53
220.178	8928.46
220.251	8898.03
220.325	8918.4
220.398	8939.48
220.471	8963.21
220.544	8999.07
220.618	8978.8
220.691	9010.18
220.764	9030.35
220.838	9067.38
220.911	9054.71
220.984	9140.68
221.057	9175.43
221.131	9204.85
221.204	9100
221.277	9176.37
221.35	9315.43
221.424	9308.59
221.497	9313.6
221.57	9341.61
221.643	9369.35
221.716	9417.27
221.79	9420.64
221.863	9435.19
221.936	9447.76
222.009	9461.81
222.082	9496.15
222.155	9507.51
222.229	9575.86
222.302	9615.59
222.375	9622.33
222.448	9663.75
222.521	9673.91
222.594	9681.04
222.667	9651.49
222.74	9717.5
222.814	9714.27
222.887	9690.81
222.96	9749.67
223.033	9799.67
223.106	9827.26
223.179	9865.03
223.252	9879.68
223.325	9918.44
223.398	9932.46
223.471	9966.27
223.544	10000.37
223.617	10021.47
223.69	10050.94
223.763	10004.36
223.837	10030.03
223.91	10059.61
223.983	10006.3
224.056	9965.89
224.129	9988.39
224.202	10049.15
224.275	10029.98
224.348	9992.17
224.42	9955.12
224.493	9892.75
224.566	9866.69
224.639	9889.37
224.712	9859.64
224.785	9845.38
224.858	9836.66
224.931	9817.15
225.004	9773.81
225.077	9762.88
225.15	9663.68
225.223	9660.64
225.296	9756
225.369	9695.75
225.442	9662.85
225.514	9684.75
225.587	9712.11
225.66	9719.72
225.733	9723.86
225.806	9732.91
225.879	9727.62
225.952	9698.49
226.025	9755.37
226.097	9809.28
226.17	9807.7
226.243	9733.15
226.316	9727.37
226.389	9735.27
226.461	9756.56
226.534	9779.1
226.607	9768.7
226.68	9855.66
226.753	9845.74
226.825	9749.37
226.898	9809.82
226.971	9813.81
227.044	9837.61
227.117	9845.75
227.189	9859.24
227.262	9901.1
227.335	9928.03
227.407	9924.8
227.48	9960.53
227.553	9970.46
227.626	9947.71
227.698	9946.36
227.771	9998.12
227.844	9978.52
227.916	9993.69
227.989	9961.42
228.062	9957.28
228.134	10058.16
228.207	10058.78
228.28	10061.72
228.352	10085.66
228.425	10096.02
228.498	10147.42
228.57	10123.44
228.643	10187.23
228.716	10200.82
228.788	10179.76
228.861	10176.78
228.934	10248.41
229.006	10259.77
229.079	10266.04
229.151	10259.82
229.224	10229.82
229.296	10258.48
229.369	10371.67
229.442	10430.22
229.514	10413.36
229.587	10466.26
229.659	10389.16
229.732	10407.76
229.804	10447.84
229.877	10533.23
229.949	10568.27
230.022	10622.87
230.094	10630
230.167	10619.73
230.239	10568.86
230.312	10562.55
230.384	10640.24
230.457	10640.91
230.529	10650.4
230.602	10650.74
230.674	10661.82
230.747	10706.95
230.819	10734.65
230.892	10609.91
230.964	10608.56
231.037	10638.27
231.109	10623.34
231.181	10671.56
231.254	10637.31
231.326	10629.4
231.399	10599.62
231.471	10567.77
231.544	10487.67
231.616	10529.97
231.688	10539.51
231.761	10525.11
231.833	10517.02
231.905	10426.81
231.978	10424.06
232.05	10416.59
232.122	10424.78
232.195	10396.12
232.267	10440.93
232.339	10421.7
232.412	10498.83
232.484	10471.17
232.556	10446.7
232.629	10523.09
232.701	10536.82
232.773	10551.71
232.846	10541.16
232.918	10559.18
232.99	10578.46
233.062	10621.49
233.135	10644.37
233.207	10604.04
233.279	10661.89
233.351	10694.85
233.424	10698.46
233.496	10670.51
233.568	10765.64
233.64	10726.03
233.713	10744.78
233.785	10737.84
233.857	10755.33
233.929	10707.63
234.001	10782.57
234.074	10854.64
234.146	10783.65
234.218	10787.12
234.29	10793.67
234.362	10781.2
234.434	10727.08
234.507	10691.13
234.579	10640.97
234.651	10620.11
234.723	10653.7
234.795	10676.29
234.867	10676.25
234.939	10749.93
235.012	10775.08
235.084	10777.97
235.156	10820.27
235.228	10809.19
235.3	10802.73
235.372	10821.48
235.444	10881.47
235.516	10797.75
235.588	10809.7
235.66	10831.05
235.732	10799.68
235.804	11005.78
235.876	11055.65
235.948	11130.59
236.02	11152.75
236.092	11170.87
236.164	11192.17
236.236	11196.89
236.308	11195.93
236.38	11227.35
236.452	11199.3
236.524	11218.28
236.596	11287.99
236.668	11327.36
236.74	11353
236.812	11384.76
236.884	11418.78
236.956	11429.39
237.028	11424.91
237.1	11409.2
237.172	11482.36
237.244	11570.17
237.316	11441.56
237.388	11428.79
237.46	11404.79
237.532	11478.67
237.604	11474.86
237.675	11558.59
237.747	11610.21
237.819	11605.48
237.891	11614.35
237.963	11604.67
238.035	11608.81
238.107	11486.19
238.178	11556.18
238.25	11563.99
238.322	11657.98
238.394	11617.79
238.466	11623.86
238.538	11678.46
238.609	11724.39
238.681	11670.98
238.753	11650.69
238.825	11676.29
238.897	11716.62
238.968	11809.08
239.04	11785.46
239.112	11909.76
239.184	11866.09
239.255	11871.48
239.327	11906.52
239.399	11933.46
239.471	11997.33
239.542	12039.45
239.614	12125.92
239.686	12043.64
239.758	12107.69
239.829	12077.81
239.901	12150.06
239.973	12165.1
240.044	12198.02
240.116	12220.29
240.188	12242.89
240.259	12256.82
240.331	12250.8
240.403	12294.85
240.474	12242.6
240.546	12236.86
240.618	12173.96
240.689	12176.56
240.761	12192.9
240.833	12268.39
240.904	12268.77
240.976	12270.7
241.048	12293.74
241.119	12330.86
241.191	12381.57
241.262	12454.31
241.334	12461.59
241.405	12468.77
241.477	12480
241.549	12500.06
241.62	12528.84
241.692	12583.16
241.763	12662.12
241.835	12695.14
241.906	12718.14
241.978	12696.49
242.049	12771.79
242.121	12845.39
242.192	12929.8
242.264	12900.45
242.335	12851.03
242.407	12903
242.478	12911.19
242.55	12933.22
242.621	12914.95
242.693	12913.7
242.764	12909.6
242.836	12912.69
242.907	12952.41
242.979	12993.82
243.05	13014.79
243.122	13043.47
243.193	13045.45
243.264	12967.35
243.336	12971.64
243.407	13009.25
243.479	13099.53
243.55	13123.78
243.622	13137.86
243.693	13134.73
243.764	13207.23
243.836	13194.4
243.907	13188.43
243.978	13194.5
244.05	13224.24
244.121	13180.04
244.192	13235.57
244.264	13183.94
244.335	13202.02
244.407	13147.07
244.478	13165.19
244.549	13161.77
244.62	13121.47
244.692	13124.7
244.763	13185.05
244.834	13177.29
244.906	13156.66
244.977	13177.34
245.048	13238.13
245.119	13223.13
245.191	13197.25
245.262	13137.38
245.333	13217.64
245.405	13237.5
245.476	13276.21
245.547	13299.01
245.618	13364.18
245.689	13376.57
245.761	13418.61
245.832	13429.07
245.903	13492.51
245.974	13524.13
246.045	13548.52
246.117	13642.91
246.188	13627.92
246.259	13606.95
246.33	13631.39
246.401	13651.97
246.473	13624.69
246.544	13611.96
246.615	13677.19
246.686	13684.8
246.757	13770.37
246.828	13754.27
246.899	13846.05
246.97	13817.99
247.042	13812.64
247.113	13858.25
247.184	13969.3
247.255	13972.34
247.326	14004.35
247.397	14013.27
247.468	14028.02
247.539	14040.51
247.61	13991.87
247.681	14042.77
247.752	14104.14
247.823	14084.52
247.894	14101.92
247.965	14070.73
248.037	14062.25
248.108	14004.98
248.179	14025.27
248.25	14022.19
248.321	14053.57
248.392	13997.8
248.463	14088.86
248.534	14089.82
248.605	14125.06
248.675	14085.06
248.746	14111.67
248.817	14136.78
248.888	14158.33
248.959	14103.9
249.03	14138.18
249.101	14151.87
249.172	14132.34
249.243	14055.07
249.314	14129.07
249.385	14141.21
249.456	14180.98
249.527	14174.19
249.598	14204.36
249.669	14200.99
249.739	14221.19
249.81	14245.24
249.881	14198.53
249.952	14190.19
250.023	14186.48
250.094	14120.1
250.165	14089.97
250.235	14082.5
250.306	14085.11
250.377	14051.8
250.448	14078.21
250.519	14012.89
250.59	14078.5
250.66	14085.97
250.731	14169.9
250.802	14164.55
250.873	14193.62
250.944	14216.56
251.014	14207.84
251.085	14312.97
251.156	14346.13
251.227	14414.68
251.297	14498.69
251.368	14708.51
251.439	14800.96
251.51	14861.94
251.58	14857.7
251.651	14854.13
251.722	14918.14
251.792	14868.83
251.863	14879.48
251.934	14955.79
252.005	15074.08
252.075	15084.01
252.146	15143.45
252.217	15192.33
252.287	15244.1
252.358	15241.78
252.429	15330.77
252.499	15331.34
252.57	15339.87
252.641	15404.37
252.711	15395.26
252.782	15321.95
252.852	15254.62
252.923	15216.06
252.994	15239.15
253.064	15301.04
253.135	15287.31
253.205	15266.72
253.276	15346.89
253.347	15410.71
253.417	15378.22
253.488	15360.29
253.558	15345.06
253.629	15338.5
253.699	15358.36
253.77	15385.98
253.841	15386.17
253.911	15392.05
253.982	15416.64
254.052	15450.76
254.123	15451.92
254.193	15460.69
254.264	15606.2
254.334	15573.13
254.405	15540.12
254.475	15499.29
254.546	15498.42
254.616	15561.9
254.687	15598.73
254.757	15633.82
254.827	15638.64
254.898	15679.76
254.968	15698.65
255.039	15684.67
255.109	15736.25
255.18	15701.49
255.25	15629.43
255.321	15675.51
255.391	15630.01
255.461	15724.97
255.532	15635.13
255.602	15626.02
255.673	15572.37
255.743	15538.2
255.813	15470.72
255.884	15528.94
255.954	15579.94
256.024	15664.77
256.095	15674.41
256.165	15639.61
256.235	15662.6
256.306	15645.87
256.376	15696.62
256.446	15729.98
256.517	15776.88
256.587	15816.4
256.657	15846.53
256.728	15880.61
256.798	15877.86
256.868	15878.05
256.938	15844.7
257.009	15901.28
257.079	15941.53
257.149	16045.5
257.219	15977.88
257.29	16024.1
257.36	15955.66
257.43	15994.51
257.5	15924.47
257.571	15920.47
257.641	15967.81
257.711	15924.62
257.781	15963.42
257.852	15982.17
257.922	15925.78
257.992	15930.12
258.062	15926.4
258.132	15975.57
258.202	15971.95
258.273	15997.98
258.343	16081.07
258.413	16068.2
258.483	16072.35
258.553	16051.33
258.623	16029.79
258.693	16067.29
258.764	16134.57
258.834	16212.75
258.904	16228.18
258.974	16213.28
259.044	16220.27
259.114	16248.71
259.184	16286.45
259.254	16301.87
259.324	16249.48
259.394	16300.09
259.464	16388.05
259.535	16409.93
259.605	16404
259.675	16400.77
259.745	16437.59
259.815	16415.28
259.885	16415.08
259.955	16538.65
260.025	16530.12
260.095	16547.08
260.165	16584.77
260.235	16663.33
260.305	16647.9
260.375	16622.31
260.445	16723.48
260.515	16789.65
260.585	16849.56
260.655	16855.82
260.725	16904.98
260.795	16950.19
260.865	17031.15
260.934	16995.68
261.004	17020.12
261.074	17028.31
261.144	17098.63
261.214	17138.97
261.284	17136.9
261.354	17183.5
261.424	17138.5
261.494	17215.32
261.564	17223.9
261.634	17248.62
261.703	17175.56
261.773	17215.32
261.843	17251.95
261.913	17246.12
261.983	17196.48
262.053	17206.94
262.123	17211.28
262.192	17162.45
262.262	17202.89
262.332	17143.85
262.402	17175.42
262.472	17182.16
262.541	17118.93
262.611	17173.34
262.681	17145.68
262.751	17188.38
262.821	17196.62
262.89	17163.12
262.96	17184.76
263.03	17264.81
263.1	17290.74
263.169	17308.57
263.239	17337.2
263.309	17410.01
263.379	17444.86
263.448	17466.25
263.518	17493.48
263.588	17508.86
263.657	17596.33
263.727	17634.69
263.797	17659.94
263.867	17659.31
263.936	17627.17
264.006	17697.44
264.076	17686.5
264.145	17685.01
264.215	17670.12
264.285	17715.8
264.354	17671.99
264.424	17661.92
264.494	17604.86
264.563	17592.91
264.633	17680.38
264.702	17706.93
264.772	17645.3
264.842	17641.11
264.911	17683.71
264.981	17635.04
265.05	17653.11
265.12	17651.76
265.19	17667.42
265.259	17706.65
265.329	17749.97
265.398	17773.39
265.468	17876.28
265.537	17864.52
265.607	17906.35
265.676	17960.23
265.746	17975.8
265.815	18042.79
265.885	18046.74
265.955	18031.94
266.024	18036.57
266.094	17963.95
266.163	18034.5
266.232	18110.16
266.302	18122.35
266.371	18148.61
266.441	18177
266.51	18225.33
266.58	18220.99
266.649	18201.43
266.719	18262.34
266.788	18289.18
266.858	18375.54
266.927	18299.06
266.996	18336.8
267.066	18357.66
267.135	18322.92
267.205	18376.26
267.274	18400.36
267.343	18472.16
267.413	18497.7
267.482	18565.07
267.552	18639.72
267.621	18586.76
267.69	18539.53
267.76	18565.94
267.829	18580.64
267.898	18602.09
267.968	18577.56
268.037	18627.96
268.106	18680.63
268.176	18643.72
268.245	18658.61
268.314	18643.91
268.384	18712.34
268.453	18732.2
268.522	18769.31
268.592	18844.48
268.661	18819.81
268.73	18848.34
268.799	18821.11
268.869	18902.46
268.938	18851.47
269.007	18840.48
269.076	18860.92
269.146	18916.33
269.215	18949.63
269.284	19041.63
269.353	19041.53
269.422	19054.11
269.492	19040.04
269.561	18953.87
269.63	18996.19
269.699	18976.23
269.768	18992.91
269.838	19016.18
269.907	19065.29
269.976	19029.29
270.045	18968.62
270.114	19014.83
270.183	19024.14
270.253	19071.07
270.322	19025.97
270.391	19054.69
270.46	19131.36
270.529	19183.31
270.598	19225.09
270.667	19229.91
270.736	19191.4
270.806	19230.53
270.875	19297.9
270.944	19310.19
271.013	19447.34
271.082	19472.64
271.151	19525.41
271.22	19486.42
271.289	19498.13
271.358	19512.06
271.427	19550.28
271.496	19583.48
271.565	19581.7
271.634	19604.68
271.703	19733.32
271.772	19798.52
271.841	19813.7
271.91	19770.04
271.979	19799.19
272.048	19772.88
272.117	19820.35
272.186	19828.11
272.255	19893.84
272.324	19937.79
272.393	19978.27
272.462	19973.26
272.531	19990.85
272.6	20003.67
272.669	20083.52
272.738	20101.69
272.807	20131.81
272.876	20123.04
272.945	20270.32
273.013	20336.2
273.082	20397.21
273.151	20298.55
273.22	20330.65
273.289	20357.29
273.358	20453.44
273.427	20456.24
273.496	20515.46
273.564	20549.34
273.633	20596.52
273.702	20556.48
273.771	20563.85
273.84	20607.75
273.909	20644.38
273.977	20690.6
274.046	20702.75
274.115	20762.99
274.184	20756.48
274.253	20770.07
274.322	20849.88
274.39	20782.12
274.459	20775.71
274.528	20734.84
274.597	20762.5
274.665	20799.9
274.734	20871.9
274.803	20875.28
274.872	20894.65
274.94	20870.99
275.009	21114.78
275.078	21120.47
275.147	21162.11
275.215	21192.38
275.284	21247.52
275.353	21259.18
275.421	21217.73
275.49	21314.57
275.559	21323.68
275.627	21343.58
275.696	21358.52
275.765	21401.71
275.833	21422.77
275.902	21469.19
275.971	21558.26
276.039	21646.9
276.108	21705.8
276.177	21752.46
276.245	21761.67
276.314	21788.28
276.383	21869.87
276.451	21694.81
276.52	21744.46
276.588	21834.99
276.657	21888.3
276.725	21898.91
276.794	21948.08
276.863	22035.22
276.931	22000.95
277	22059.62
277.068	22140.49
277.137	22251.86
277.205	22291.87
277.274	22404.53
277.342	22483.4
277.411	22460.6
277.48	22459.3
277.548	22460.89
277.617	22499.95
277.685	22530.46
277.754	22597.32
277.822	22611.01
277.89	22695.84
277.959	22722.69
278.027	22697.09
278.096	22715.94
278.164	22859.95
278.233	22872.82
278.301	22872.87
278.37	22940.17
278.438	22948.61
278.507	22997.79
278.575	22943.54
278.643	22970.74
278.712	22951.4
278.78	22936.07
278.849	23012.38
278.917	23091.46
278.985	23124.64
279.054	23178.36
279.122	23265.59
279.191	23306.87
279.259	23339.8
279.327	23317.9
279.396	23418.55
279.464	23457.8
279.532	23522.57
279.601	23542.69
279.669	23577.36
279.737	23686.21
279.806	23732.89
279.874	23811.22
279.942	23852.84
280.011	23893.58
280.079	23954.06
280.147	24043.81
280.215	24114.57
280.284	24149.92
280.352	24145.72
280.42	24215.04
280.488	24224.06
280.557	24237.56
280.625	24289.13
280.693	24335.14
280.761	24381.98
280.83	24362.34
280.898	24452.06
280.966	24427.12
281.034	24352.58
281.102	24355.47
281.171	24365.46
281.239	24445.23
281.307	24450.73
281.375	24451.31
281.443	24582.82
281.512	24623.79
281.58	24699.08
281.648	24678.77
281.716	24705.34
281.784	24753.06
281.852	24774.82
281.92	24811.39
281.989	24894.73
282.057	24875.19
282.125	25073.23
282.193	25117.62
282.261	25169.3
282.329	25190.68
282.397	25259.28
282.465	25323.64
282.533	25420.8
282.601	25427.56
282.67	25387.84
282.738	25413.55
282.806	25502.58
282.874	25500.5
282.942	25559.01
283.01	25578.13
283.078	25663.69
283.146	25713.58
283.214	25793.81
283.282	25852.46
283.35	25936.46
283.418	25948.53
283.486	26016.04
283.554	25915.82
283.622	25961.34
283.69	26001.36
283.758	26036.88
283.826	26096.21
283.894	26175.87
283.962	26282.11
284.03	26378.91
284.098	26444.36
284.165	26470.57
284.233	26510.74
284.301	26543.09
284.369	26555.02
284.437	26575.98
284.505	26595.43
284.573	26686.26
284.641	26682.3
284.709	26749.92
284.777	26737.02
284.845	26809.82
284.912	26874.86
284.98	26937.16
285.048	26952.85
285.116	27021.63
285.184	27111.23
285.252	27154.94
285.319	27150.16
285.387	27162
285.455	27154.75
285.523	27214.26
285.591	27253.76
285.659	27304.72
285.726	27386.7
285.794	27390.81
285.862	27425.93
285.93	27473.12
285.997	27501.24
286.065	27534.42
286.133	27552.78
286.201	27587.56
286.269	27591.23
286.336	27599.2
286.404	27613.79
286.472	27707.35
286.539	27674.02
286.607	27659.13
286.675	27702.77
286.743	27777.03
286.81	27798.25
286.878	27897.41
286.946	27913.98
287.013	27975.53
287.081	28018.98
287.149	28019.85
287.216	28125.01
287.284	28150.09
287.352	28199.62
287.419	28231.52
287.487	28330.9
287.555	28393.22
287.622	28429.7
287.69	28493.03
287.758	28588.69
287.825	28629.53
287.893	28623.54
287.96	28694.66
288.028	28776.99
288.096	28833.31
288.163	28889.69
288.231	28895.93
288.298	28938.49
288.366	29033.17
288.433	29063.67
288.501	29086.49
288.569	29136.78
288.636	29157.23
288.704	29255.07
288.771	29324.71
288.839	29344.1
288.906	29362.81
288.974	29427.56
289.041	29472.32
289.109	29482.53
289.176	29546.39
289.244	29607.71
289.311	29700.59
289.379	29788.32
289.446	29849.52
289.514	29901.87
289.581	29947.06
289.649	30018.6
289.716	30053.58
289.783	30074.68
289.851	30187.78
289.918	30225.36
289.986	30304.38
290.053	30362.83
290.121	30396.52
290.188	30452.51
290.255	30610.88
290.323	30640.58
290.39	30675.59
290.458	30764.61
290.525	30851.19
290.592	30889.82
290.66	30951.33
290.727	30975.25
290.794	31066.26
290.862	31112.65
290.929	31164.3
290.996	31205.98
291.064	31278.3
291.131	31373.94
291.198	31460.81
291.266	31502.94
291.333	31567.69
291.4	31630.02
291.468	31742.05
291.535	31776.57
291.602	31835.51
291.669	31845.16
291.737	31905.48
291.804	31950.43
291.871	32052.63
291.938	32139.25
292.006	32281.53
292.073	32354.38
292.14	32448.45
292.207	32461.43
292.275	32517.92
292.342	32585.55
292.409	32717.21
292.476	32849.32
292.543	32863.81
292.611	32905.53
292.678	33007.3
292.745	33143.65
292.812	33219.16
292.879	33244.85
292.946	33310.21
293.014	33401.52
293.081	33480.29
293.148	33576.96
293.215	33676.33
293.282	33680.89
293.349	33753.96
293.416	33720.98
293.484	33817.94
293.551	33891.97
293.618	34000.94
293.685	34126.78
293.752	34160.52
293.819	34204.61
293.886	34209.55
293.953	34279.75
294.02	34381.48
294.087	34455.79
294.154	34473.15
294.221	34577.16
294.288	34640.39
294.356	34752.46
294.423	34807.76
294.49	34820.51
294.557	34907.47
294.624	34923.72
294.691	35050.35
294.758	35096
294.825	35184.62
294.892	35213.63
294.959	35259.42
295.026	35332.25
295.093	35352.14
295.16	35413.49
295.226	35467.79
295.293	35594.78
295.36	35675.46
295.427	35751.07
295.494	35836.79
295.561	35922.61
295.628	36045.31
295.695	36146.2
295.762	36204.83
295.829	36298.55
295.896	36413.89
295.963	36508.54
296.03	36597.49
296.096	36676.22
296.163	36768.01
296.23	36873.11
296.297	36968.67
296.364	37022.83
296.431	37092.06
296.498	37141.47
296.564	37278.69
296.631	37333.64
296.698	37339.56
296.765	37462.54
296.832	37485.85
296.899	37496.24
296.965	37612.77
297.032	37585.96
297.099	37699.12
297.166	37783.81
297.233	37818.04
297.299	37856.59
297.366	37899.91
297.433	37955.36
297.5	38036.61
297.566	38090.23
297.633	38135.74
297.7	38207.08
297.767	38251.16
297.833	38333.98
297.9	38388.75
297.967	38384.04
298.033	38473.31
298.1	38623.75
298.167	38642.98
298.234	38708.4
298.3	38789.8
298.367	38810.55
298.434	38894.29
298.5	38909.6
298.567	38929.76
298.634	38975.95
298.7	39081.6
298.767	39154.23
298.834	39257.21
298.9	39285.15
298.967	39308.66
299.033	39398.06
299.1	39493.15
299.167	39608.81
299.233	39631.26
299.3	39738.43
299.366	39850.99
299.433	39962.66
299.5	39930.1
299.566	39982.58
299.633	40095.94
299.699	40180.05
299.766	40224.46
299.832	40290.22
299.899	40360.44
299.965	40461.36
300.032	40507.13
300.099	40589.37
300.165	40653.71
300.232	40703.19
300.298	40751.54
300.365	40866.23
300.431	40918.82
300.498	40954.35
300.564	41024.68
300.631	41125.24
300.697	41213.76
300.763	41260.71
300.83	41306.7
300.896	41408.57
300.963	41501.8
301.029	41566.02
301.096	41640.35
301.162	41737.13
301.229	41780.15
301.295	41805.58
301.361	41878.4
301.428	41953.25
301.494	41944.65
301.561	42013.44
301.627	42075.13
301.693	42150.97
301.76	42209.17
301.826	42238.93
301.892	42330.39
301.959	42410.04
302.025	42452.44
302.092	42488.42
302.158	42577.2
302.224	42632.16
302.291	42651.61
302.357	42698.33
302.423	42728.68
302.49	42738.89
302.556	42832.71
302.622	42880.41
302.688	42967.26
302.755	43059.44
302.821	43142.39
302.887	43230.06
302.954	43277.58
303.02	43350.48
303.086	43417.31
303.152	43461.96
303.219	43507.53
303.285	43566.15
303.351	43640.15
303.417	43689.37
303.483	43720.94
303.55	43749.24
303.616	43801.99
303.682	43862.24
303.748	43883.35
303.815	43976.23
303.881	44067.58
303.947	44071.43
304.013	44136.76
304.079	44152.08
304.145	44131.21
304.212	44165.56
304.278	44192.75
304.344	44211.96
304.41	44215.95
304.476	44230.69
304.542	44260.03
304.608	44328.38
304.674	44322.25
304.741	44337.49
304.807	44403.08
304.873	44463.12
304.939	44561.13
305.005	44537.58
305.071	44579.86
305.137	44643.4
305.203	44597.36
305.269	44638.49
305.335	44719.63
305.401	44756.08
305.467	44802.55
305.533	44882.6
305.599	44960.18
305.666	45037.6
305.732	45101.94
305.798	45188.72
305.864	45326.98
305.93	45385.24
305.996	45420.82
306.062	45464.62
306.128	45511.79
306.194	45513.35
306.259	45546.35
306.325	45569.14
306.391	45659.92
306.457	45718.18
306.523	45762.72
306.589	45911.27
306.655	45923.44
306.721	45915.5
306.787	45906.94
306.853	45996.18
306.919	45981.24
306.985	46005.73
307.051	46021.94
307.117	46032.07
307.183	46060.61
307.248	45993.69
307.314	46052.81
307.38	46113.59
307.446	46183.61
307.512	46175.63
307.578	46229.14
307.644	46250.66
307.709	46287.87
307.775	46298
307.841	46331.21
307.907	46376.94
307.973	46340.21
308.039	46379.02
308.104	46428.99
308.17	46491.41
308.236	46476.16
308.302	46530.06
308.368	46514.43
308.433	46555.14
308.499	46590.79
308.565	46577.93
308.631	46640.07
308.696	46613.19
308.762	46595.16
308.828	46629.91
308.894	46609.65
308.959	46578
309.025	46592.46
309.091	46607.86
309.156	46631.05
309.222	46674.7
309.288	46663.6
309.354	46631.26
309.419	46656.89
309.485	46648.41
309.551	46693.48
309.616	46693.48
309.682	46720.81
309.748	46753
309.813	46767.71
309.879	46769.66
309.945	46775.16
310.01	46777.64
310.076	46827.09
310.141	46855.35
310.207	46832.3
310.273	46894.34
310.338	46953.37
310.404	46953.95
310.469	46946.84
310.535	46945.42
310.601	46912.39
310.666	46979.98
310.732	47064.59
310.797	47067.07
310.863	47076.91
310.928	47082.71
310.994	47116.77
311.059	47144.93
311.125	47169.97
311.191	47239.97
311.256	47244.21
311.322	47303.75
311.387	47296.24
311.453	48014.54
311.518	48062.11
311.584	48086.67
311.649	48134.38
311.715	48141.84
311.78	48182.71
311.846	48191.78
311.911	48253.92
311.976	48298.26
312.042	48281.73
312.107	48269.65
312.173	48282.08
312.238	48295.96
312.304	48317.6
312.369	48351.43
312.434	48348.8
312.5	48361.9
312.565	48288.94
312.631	48347.65
312.696	48375.15
312.761	48428.85
312.827	47743.8
312.892	47816.89
312.958	47858.96
313.023	47897.63
313.088	47921.08
313.154	47901.29
313.219	47908.41
313.284	47902.12
313.35	47921.62
313.415	47922.54
313.48	47931.8
313.546	47982.17
313.611	48060.95
313.676	48082.6
313.741	48073.05
313.807	48146.3
313.872	48191.1
313.937	48271.49
314.003	48343.97
314.068	48365.92
314.133	48417.23
314.198	48413.86
314.264	48381.06
314.329	48386.58
314.394	48384.67
314.459	48417.63
314.525	48519.92
314.59	48540
314.655	48542.92
314.72	48592.63
314.785	48629.68
314.851	48661.02
314.916	48624.31
314.981	48594.75
315.046	48573.88
315.111	48567.06
315.176	48560.86
315.242	48608.77
315.307	48614.28
315.372	48582.76
315.437	48585.54
315.502	48568.76
315.567	48651.06
315.632	48633.94
315.698	48664.72
315.763	48679.94
315.828	48680.77
315.893	48696.63
315.958	48706.29
316.023	48698
316.088	48653.76
316.153	48608.57
316.218	48584.82
316.283	48551.1
316.348	48506.98
316.413	48524.98
316.479	48498.57
316.544	48368.37
316.609	48258.02
316.674	48133.7
316.739	47992.28
316.804	47860.07
316.869	47728.45
316.934	47560.88
316.999	47420.06
317.064	47207.36
317.129	47034.04
317.194	46879.8
317.259	46675.81
317.324	46476.11
317.389	46291.01
317.454	46121.42
317.518	45965.28
317.583	45829.55
317.648	45710.01
317.713	45545.66
317.778	45284.44
317.843	45127.11
317.908	44951.35
317.973	44769.26
318.038	44617.3
318.103	44443.04
318.168	44281.84
318.233	44121.72
318.297	43895.99
318.362	43715.75
318.427	43525.95
318.492	43381.56
318.557	43149.26
318.622	42989.62
318.687	42842.78
318.751	42644.95
318.816	42468.76
318.881	42273.55
318.946	42026.06
319.011	41783.01
319.075	41559.4
319.14	41367.47
319.205	41138.91
319.27	40940.09
319.335	40706.47
319.399	40480.87
319.464	40297.29
319.529	40034.23
319.594	39814.59
319.658	39620.79
319.723	39370.85
319.788	39175.24
319.853	38885.36
319.917	38678.29
319.982	38388.27
320.047	38154.95
320.112	37962.79
320.176	37692.21
320.241	37466.27
320.306	37260.6
320.37	37018.61
320.435	36815.06
320.5	36611.82
320.564	36366.43
320.629	36113.68
320.694	35894.38
320.758	35650.53
320.823	35390.67
320.888	35189.57
320.952	34903.25
321.017	34667.08
321.082	34427.07
321.146	34207.73
321.211	33982.48
321.275	33740.23
321.34	33496.9
321.405	33233.16
321.469	32958
321.534	32701.7
321.598	32420.68
321.663	32198.64
321.727	31983.03
321.792	31708.41
321.857	31454.38
321.921	31219.66
321.986	30965.15
322.05	30652.53
322.115	30409.64
322.179	30147.26
322.244	29835.53
322.308	29608.43
322.373	29323.71
322.437	29083.38
322.502	28869.59
322.566	28602.77
322.631	28367.18
322.695	28107.01
322.76	27845.46
322.824	27613.68
322.889	27340.68
322.953	27070.01
323.018	26718.84
323.082	26375.09
323.146	26064.49
323.211	25750.44
323.275	25465.71
323.34	25192.87
323.404	24951.54
323.468	24671.6
323.533	24393.08
323.597	24120.06
323.662	23813.36
323.726	23560.33
323.79	23265.6
323.855	22900.34
323.919	22614.67
323.983	22338.12
324.048	21923.22
324.112	22111.72
324.177	21242.67
324.241	20089.48
324.305	18957.08
324.37	17843.7
324.434	16760.64
324.498	16467.65
324.562	16135.77
324.627	15758.58
324.691	15382.33
324.755	14958.99
324.82	14479.41
324.884	13977.95
324.948	13467.31
325.012	12854.78
325.077	12097.48
