Data from 20250701_urea_2M_exp3_MAYP1162681_06-09-48-688.txt Node
Date: Wed Jul 02 06:09:48 BST 2025
User: adleo
Spectrometer: MAYP116268
Trigger mode: 0
Integration Time (sec): 4.000000E0
Scans to average: 1
Electric dark correction enabled: true
Nonlinearity correction enabled: true
Boxcar width: 10
XAxis mode: Wavelengths
Number of Pixels in Spectrum: 2068
>>>>>Begin Spectral Data<<<<<
179.565	3620.15
179.642	3809.52
179.718	3957.83
179.795	4086.17
179.871	4193.24
179.948	4253.64
180.024	4320.5
180.101	4392.28
180.177	4443.64
180.254	4521.93
180.33	4595.79
180.407	4856.02
180.483	5136.21
180.56	5421.47
180.636	5680.85
180.712	5636.46
180.789	5670.13
180.865	5711.78
180.942	5744.09
181.018	5777.56
181.095	5822.68
181.171	5837.26
181.248	5838.17
181.324	5885.83
181.4	5910.68
181.477	5946.67
181.553	5990.78
181.63	6064.2
181.706	6121.69
181.782	6147.39
181.859	6145.47
181.935	6161.16
182.011	6147.39
182.088	6203.98
182.164	6272.33
182.24	6320.92
182.317	6348.79
182.393	6341.98
182.469	6386.23
182.546	6431.45
182.622	6447.77
182.698	6430.87
182.775	6473.07
182.851	6518.72
182.927	6501.15
183.003	6485.12
183.08	6467.89
183.156	6501.01
183.232	6489.97
183.308	6451.71
183.385	6481.22
183.461	6537.21
183.537	6542.25
183.613	6591.22
183.69	6560.59
183.766	6521.05
183.842	6543.91
183.918	6564.7
183.995	6607.42
184.071	6618.23
184.147	6600.22
184.223	6565.39
184.299	6608.43
184.375	6573.09
184.452	6596.68
184.528	6717.55
184.604	6754.13
184.68	6793.64
184.756	6815.36
184.832	6831.59
184.908	6846.14
184.985	6841.48
185.061	6790.34
185.137	6821.56
185.213	6780.17
185.289	6785.16
185.365	6761.54
185.441	6761.3
185.517	6802.67
185.593	6792.78
185.669	6782.26
185.745	6815.59
185.822	6871.03
185.898	6841.05
185.974	6873.89
186.05	6847.66
186.126	6772.95
186.202	6751.92
186.278	6740.34
186.354	6706.43
186.43	6723.11
186.506	6724.69
186.582	6722
186.658	6743.22
186.734	6672.55
186.81	6681.34
186.886	6692.09
186.962	6731.9
187.038	6713.79
187.114	6692.16
187.19	6716.85
187.266	6688.96
187.341	6691.94
187.417	6666.73
187.493	6670.47
187.569	6677.25
187.645	6659.38
187.721	6621.72
187.797	6643.8
187.873	6658.17
187.949	6642.42
188.025	6626.32
188.101	6633.43
188.176	6650.09
188.252	6637.37
188.328	6668.12
188.404	6663.22
188.48	6647.05
188.556	6623.66
188.632	6622.74
188.707	6624.95
188.783	6612.99
188.859	6599.32
188.935	6560.79
189.011	6584.08
189.086	6559.36
189.162	6531.02
189.238	6528.77
189.314	6520.41
189.39	6503.8
189.465	6479.55
189.541	6531.75
189.617	6475.87
189.693	6453.22
189.768	6467.91
189.844	6549.98
189.92	6522.68
189.996	6558.08
190.071	6596.54
190.147	6593.28
190.223	6622.29
190.298	6594.09
190.374	6552.13
190.45	6595.57
190.526	6621.65
190.601	6607.63
190.677	6617.75
190.753	6710.9
190.828	6720.02
190.904	6772.87
190.98	6825.04
191.055	6856.45
191.131	6829.54
191.207	6903.35
191.282	6939.93
191.358	6908.38
191.433	6860.45
191.509	6904.46
191.585	6893.56
191.66	6893.46
191.736	6918.34
191.811	6892.59
191.887	6949.49
191.963	7032.16
192.038	7045.33
192.114	7045.9
192.189	7056.76
192.265	7041.45
192.34	6966.12
192.416	6960.93
192.491	6945.89
192.567	6951.22
192.642	6962.23
192.718	6964.1
192.793	6921.87
192.869	6909.91
192.944	6916.06
193.02	6936.39
193.095	6950.65
193.171	6963.81
193.246	6963
193.322	6954.06
193.397	6950.85
193.473	6904.37
193.548	6843.68
193.624	6860.07
193.699	6857.23
193.775	6910.1
193.85	6913.7
193.925	6944.31
194.001	6943.54
194.076	6910.06
194.152	6876.18
194.227	6852.73
194.302	6819.99
194.378	6832.38
194.453	6822.34
194.529	6862.07
194.604	6818.31
194.679	6796.5
194.755	6741.15
194.83	6784.56
194.905	6778.55
194.981	6813.81
195.056	6786.16
195.131	6801.96
195.207	6801.14
195.282	6769.06
195.357	6700.2
195.433	6755.63
195.508	6718.97
195.583	6742.6
195.659	6800.79
195.734	6817.03
195.809	6810.11
195.884	6842.28
195.96	6847.08
196.035	6896.08
196.11	6885.79
196.185	6919.13
196.261	6931.42
196.336	7032.26
196.411	6978.9
196.486	6999.03
196.561	6972.12
196.637	7001.27
196.712	7054.72
196.787	7059.91
196.862	7113.66
196.937	7153.05
197.013	7167.38
197.088	7206.97
197.163	7273.13
197.238	7323.4
197.313	7327.44
197.388	7377.8
197.464	7477.06
197.539	7511.37
197.614	7489.99
197.689	7527.25
197.764	7585.48
197.839	7652.54
197.914	7629.27
197.989	7706.43
198.065	7745.52
198.14	7917.48
198.215	8006.06
198.29	8043.16
198.365	8085.19
198.44	8125.4
198.515	8217.52
198.59	8269.29
198.665	8349.05
198.74	8377.26
198.815	8388.04
198.89	8464.43
198.965	8557.99
199.04	8541.29
199.115	8589.59
199.19	8724.2
199.265	8734.01
199.34	8764.29
199.415	8876.77
199.49	8946.91
199.565	8977.67
199.64	9062.33
199.715	9050.19
199.79	9070.89
199.865	9093.33
199.94	9084.04
200.015	9183.61
200.09	9199.16
200.165	9220.25
200.24	9242.16
200.315	9375.84
200.39	9419.86
200.464	9440.61
200.539	9444.8
200.614	9493.04
200.689	9574.9
200.764	9602.7
200.839	9657.95
200.914	9672.54
200.989	9632.84
201.063	9682.83
201.138	9621.62
201.213	9617.43
201.288	9552.47
201.363	9577.13
201.438	9580.55
201.512	9637.01
201.587	9577.96
201.662	9587.16
201.737	9626.26
201.812	9649.33
201.886	9539.63
201.961	9572.39
202.036	9529.11
202.111	9522.7
202.186	9427.38
202.26	9366.36
202.335	9291.42
202.41	9274.43
202.485	9222.11
202.559	9154.81
202.634	9064.54
202.709	9099.37
202.784	9043.29
202.858	9039.05
202.933	8970.46
203.008	8943.83
203.082	8880.78
203.157	8874.72
203.232	8730.84
203.306	8656.93
203.381	8551.22
203.456	8470.9
203.53	8392.64
203.605	8328.25
203.68	8251.47
203.754	8233.02
203.829	8185.47
203.904	8120.49
203.978	8084.35
204.053	8097.67
204.127	8057.23
204.202	8053.28
204.277	7990.28
204.351	7962.67
204.426	7940.29
204.5	7914.42
204.575	7800.96
204.65	7833.63
204.724	7812.51
204.799	7840.9
204.873	7832.82
204.948	7827.62
205.022	7794.94
205.097	7764.71
205.171	7811.88
205.246	7839.98
205.32	7835.32
205.395	7830.02
205.469	7800.86
205.544	7818.95
205.618	7759.51
205.693	7801.2
205.767	7760.62
205.842	7837.77
205.916	7818.49
205.991	7788.53
206.065	7808.78
206.14	7861.05
206.214	7843.87
206.289	7818.61
206.363	7860.64
206.438	7871.41
206.512	7892.43
206.586	7955.04
206.661	7985.07
206.735	7911.1
206.81	7908.7
206.884	7955.81
206.958	7916.92
207.033	7971.09
207.107	7993.66
207.181	8094.5
207.256	8071.32
207.33	8130.33
207.405	8170.53
207.479	8232.24
207.553	8252.92
207.628	8194.32
207.702	8230.25
207.776	8206.34
207.851	8215.28
207.925	8267.31
207.999	8252.69
208.073	8251.24
208.148	8260.05
208.222	8219.53
208.296	8326.02
208.371	8379.56
208.445	8423.11
208.519	8514.17
208.593	8552.47
208.668	8538.7
208.742	8550.4
208.816	8556.13
208.89	8599.4
208.965	8590.54
209.039	8618.18
209.113	8675.97
209.187	8743.18
209.261	8732.21
209.336	8799.11
209.41	8866.06
209.484	8867.99
209.558	8938.51
209.632	8980.24
209.707	9014.56
209.781	9086.9
209.855	9136.31
209.929	9192.34
210.003	9210.44
210.077	9207.89
210.151	9368.5
210.226	9477.84
210.3	9564.85
210.374	9650.1
210.448	9673.5
210.522	9710.35
210.596	9743.73
210.67	9782.3
210.744	9936.72
210.818	10043.45
210.892	10111.71
210.966	10090.04
211.041	10134.35
211.115	10129.05
211.189	10205.92
211.263	10260.11
211.337	10283.71
211.411	10339.16
211.485	10318.97
211.559	10355.72
211.633	10364.82
211.707	10258.71
211.781	10285.7
211.855	10165.65
211.929	10131.13
212.003	10060.69
212.077	10088.54
212.151	10127.71
212.225	10151.99
212.299	10115.94
212.373	10079.05
212.447	10062.28
212.52	10153.66
212.594	10163.73
212.668	10195.62
212.742	10144.65
212.816	10123.36
212.89	10097.01
212.964	10082.75
213.038	10091.23
213.112	10129.39
213.186	10175.53
213.26	10095.9
213.333	9942.93
213.407	9957.95
213.481	9963.77
213.555	9991.79
213.629	9940.72
213.703	9874.38
213.777	9855.79
213.85	9783.58
213.924	9886.69
213.998	9872.28
214.072	9838.55
214.146	9782.97
214.219	9762.83
214.293	9742.71
214.367	9737.07
214.441	9757.68
214.515	9711.87
214.588	9618.49
214.662	9489.1
214.736	9404.5
214.81	9422.16
214.883	9435.25
214.957	9384.9
215.031	9328.12
215.105	9238.89
215.178	9177.36
215.252	9141.4
215.326	9041.99
215.4	8957.26
215.473	8774.55
215.547	8696.75
215.621	8635.05
215.694	8630.57
215.768	8528.68
215.842	8464.69
215.915	8396.56
215.989	8285.09
216.063	8224.62
216.136	8201.57
216.21	8176.8
216.284	8189.12
216.357	8163.19
216.431	8118.21
216.504	8111.57
216.578	8164.94
216.652	8177.91
216.725	8150.2
216.799	8159.93
216.873	8143.53
216.946	8156.32
217.02	8114.31
217.093	8080.92
217.167	7983.04
217.24	7907.74
217.314	7878.57
217.387	7830.89
217.461	7780.2
217.535	7796.4
217.608	7731.06
217.682	7703.5
217.755	7718.4
217.829	7660.54
217.902	7642.84
217.976	7627.31
218.049	7582.55
218.123	7504.32
218.196	7502.35
218.27	7473.94
218.343	7396.64
218.417	7393.08
218.49	7368.71
218.563	7411.68
218.637	7416.3
218.71	7483.76
218.784	7504.05
218.857	7536.45
218.931	7557.69
219.004	7567.97
219.077	7595.21
219.151	7612.07
219.224	7606.21
219.298	7598.71
219.371	7642.62
219.444	7605.66
219.518	7614.31
219.591	7627.91
219.665	7740.62
219.738	7753.89
219.811	7737.5
219.885	7785.15
219.958	7817.67
220.031	7819.88
220.105	7842.48
220.178	7853.5
220.251	7827.52
220.325	7856.1
220.398	7871.68
220.471	7897.84
220.544	7929.15
220.618	7898.74
220.691	7931.25
220.764	7951.49
220.838	7975.93
220.911	7955.15
220.984	8041.8
221.057	8074.6
221.131	8105.47
221.204	7999.25
221.277	8068.92
221.35	8183.66
221.424	8173.75
221.497	8185.68
221.57	8209.67
221.643	8238.93
221.716	8283.63
221.79	8289.41
221.863	8297.64
221.936	8301.87
222.009	8314.37
222.082	8349.41
222.155	8360.86
222.229	8423.09
222.302	8450.71
222.375	8456.82
222.448	8505.8
222.521	8507.01
222.594	8509.89
222.667	8479.45
222.74	8534.01
222.814	8527.17
222.887	8514.89
222.96	8572.64
223.033	8616.5
223.106	8639.2
223.179	8670.98
223.252	8679.12
223.325	8712.03
223.398	8724.83
223.471	8759.96
223.544	8777.81
223.617	8790.9
223.69	8813.9
223.763	8773.56
223.837	8796.09
223.91	8832.48
223.983	8784.26
224.056	8750.05
224.129	8774.31
224.202	8835.54
224.275	8828.23
224.348	8804.74
224.42	8770.08
224.493	8708.1
224.566	8678.06
224.639	8706.35
224.712	8680.35
224.785	8670.29
224.858	8664.37
224.931	8649.35
225.004	8608.35
225.077	8608.93
225.15	8515.74
225.223	8514.73
225.296	8592.88
225.369	8536.78
225.442	8498.32
225.514	8512.36
225.587	8536.42
225.66	8543.4
225.733	8535.41
225.806	8541.57
225.879	8527.14
225.952	8497.26
226.025	8542.93
226.097	8595.7
226.17	8583.24
226.243	8513.57
226.316	8508.66
226.389	8515.93
226.461	8529.21
226.534	8552.79
226.607	8540.81
226.68	8622.44
226.753	8620.08
226.825	8540.06
226.898	8593.95
226.971	8594.77
227.044	8618.78
227.117	8624.65
227.189	8641.36
227.262	8680.2
227.335	8701.67
227.407	8703.07
227.48	8733.71
227.553	8750.51
227.626	8732.98
227.698	8734.91
227.771	8775.79
227.844	8757.74
227.916	8764.29
227.989	8728.82
228.062	8716.88
228.134	8804.74
228.207	8807.3
228.28	8795.75
228.352	8811.63
228.425	8825.06
228.498	8879.36
228.57	8851.5
228.643	8909.33
228.716	8907.02
228.788	8897.19
228.861	8893.1
228.934	8951.29
229.006	8962.46
229.079	8966.12
229.151	8953.5
229.224	8925.74
229.296	8951.87
229.369	9053.63
229.442	9109.73
229.514	9096.5
229.587	9141.5
229.659	9069.62
229.732	9080.55
229.804	9121.12
229.877	9199.91
229.949	9226.88
230.022	9268.11
230.094	9271.58
230.167	9259.44
230.239	9218.81
230.312	9209.72
230.384	9270.45
230.457	9270.59
230.529	9279.54
230.602	9280.84
230.674	9289.18
230.747	9328.06
230.819	9354.73
230.892	9237.53
230.964	9231.7
231.037	9262.54
231.109	9261.29
231.181	9296.86
231.254	9264.27
231.326	9255.27
231.399	9227.04
231.471	9200.55
231.544	9127.01
231.616	9175.48
231.688	9179.82
231.761	9167.07
231.833	9149.69
231.905	9078.27
231.978	9068.83
232.05	9053.67
232.122	9051.99
232.195	9025.27
232.267	9063.74
232.339	9043.71
232.412	9110.33
232.484	9087.45
232.556	9059.73
232.629	9125.96
232.701	9143.68
232.773	9155.24
232.846	9139.01
232.918	9147.35
232.99	9161.89
233.062	9206.67
233.135	9221.02
233.207	9189.77
233.279	9235.11
233.351	9267.7
233.424	9263.27
233.496	9248.82
233.568	9329.96
233.64	9299.78
233.713	9317.3
233.785	9313.59
233.857	9329.48
233.929	9278.36
234.001	9347.87
234.074	9409.09
234.146	9339.83
234.218	9337.76
234.29	9335.54
234.362	9333.95
234.434	9288.06
234.507	9252.62
234.579	9201.92
234.651	9176.55
234.723	9202.64
234.795	9222.24
234.867	9221.42
234.939	9281.23
235.012	9293.17
235.084	9297.12
235.156	9336.69
235.228	9321.09
235.3	9307.95
235.372	9316.28
235.444	9372.41
235.516	9291.58
235.588	9302.13
235.66	9315.42
235.732	9291.29
235.804	9494.72
235.876	9535.31
235.948	9594.64
236.02	9615.59
236.092	9624.35
236.164	9639.51
236.236	9642.64
236.308	9640.38
236.38	9663.64
236.452	9645.48
236.524	9664.4
236.596	9728.98
236.668	9760.19
236.74	9784.17
236.812	9809.16
236.884	9846.74
236.956	9854.54
237.028	9849.05
237.1	9833.35
237.172	9907.15
237.244	9975.93
237.316	9858.71
237.388	9842.15
237.46	9820.66
237.532	9875.86
237.604	9871.53
237.675	9945.81
237.747	9990.76
237.819	9974.67
237.891	9987.2
237.963	9978.39
238.035	9981.18
238.107	9867.72
238.178	9924.53
238.25	9931.75
238.322	10024.27
238.394	9977.55
238.466	9986.7
238.538	10029.22
238.609	10073.14
238.681	10021.16
238.753	10009.07
238.825	10024.73
238.897	10054.97
238.968	10141.03
239.04	10125.13
239.112	10236.45
239.184	10197.47
239.255	10190.15
239.327	10230.74
239.399	10245.97
239.471	10289.41
239.542	10319.18
239.614	10394.76
239.686	10315.17
239.758	10370.28
239.829	10327
239.901	10395.7
239.973	10407.06
240.044	10440.11
240.116	10449.17
240.188	10456.3
240.259	10468.63
240.331	10461.89
240.403	10498.11
240.474	10442.89
240.546	10432.1
240.618	10369.56
240.689	10368.5
240.761	10385.31
240.833	10450.22
240.904	10455.28
240.976	10454.46
241.048	10470.69
241.119	10500.77
241.191	10545.18
241.262	10605.76
241.334	10607.74
241.405	10614.24
241.477	10620.65
241.549	10629.47
241.62	10656.45
241.692	10698.42
241.763	10758.95
241.835	10775.23
241.906	10794.27
241.978	10771.38
242.049	10838.74
242.121	10906.58
242.192	10980.89
242.264	10956.55
242.335	10908.85
242.407	10951.88
242.478	10960.55
242.55	10981.42
242.621	10968.45
242.693	10971.15
242.764	10963.83
242.836	10968.5
242.907	10989.66
242.979	11021.75
243.05	11045.36
243.122	11073.22
243.193	11071.92
243.264	11002.86
243.336	11001.46
243.407	11035.01
243.479	11110.37
243.55	11132.3
243.622	11146.76
243.693	11139.96
243.764	11206.41
243.836	11186.81
243.907	11167.77
243.978	11174.23
244.05	11205.17
244.121	11159.63
244.192	11200.31
244.264	11149.7
244.335	11167.2
244.407	11126.09
244.478	11142.77
244.549	11130.19
244.62	11087.44
244.692	11090.48
244.763	11131
244.834	11123.97
244.906	11099.15
244.977	11120.79
245.048	11167.88
245.119	11146.39
245.191	11124.99
245.262	11056.27
245.333	11135.1
245.405	11161.22
245.476	11191.73
245.547	11205.18
245.618	11260.59
245.689	11269.65
245.761	11311.68
245.832	11319.49
245.903	11365.17
245.974	11395.39
246.045	11413.08
246.117	11492.22
246.188	11481.95
246.259	11469.81
246.33	11492.84
246.401	11510.82
246.473	11473.85
246.544	11462.19
246.615	11515.73
246.686	11518.38
246.757	11599.54
246.828	11572.36
246.899	11642.88
246.97	11615.07
247.042	11606.25
247.113	11643.6
247.184	11728.06
247.255	11721.17
247.326	11743.19
247.397	11746.71
247.468	11740.88
247.539	11755.15
247.61	11714.08
247.681	11753.07
247.752	11799.29
247.823	11775.77
247.894	11787.67
247.965	11763.34
248.037	11743.33
248.108	11693.78
248.179	11704.92
248.25	11698.07
248.321	11727.61
248.392	11683.17
248.463	11764.09
248.534	11765.01
248.605	11789.45
248.675	11764.67
248.746	11787.9
248.817	11814.89
248.888	11831.48
248.959	11786.56
249.03	11813.55
249.101	11817.31
249.172	11803.86
249.243	11739.81
249.314	11801.99
249.385	11812.21
249.456	11847.34
249.527	11844.54
249.598	11867.87
249.669	11871.53
249.739	11882.04
249.81	11894.72
249.881	11852.79
249.952	11844.88
250.023	11846.57
250.094	11791.28
250.165	11765.01
250.235	11749.63
250.306	11746.02
250.377	11714.74
250.448	11745
250.519	11678.2
250.59	11728.52
250.66	11735.17
250.731	11804.43
250.802	11798.84
250.873	11818.17
250.944	11844.05
251.014	11838.65
251.085	11930.43
251.156	11954.77
251.227	12007.94
251.297	12062.36
251.368	12113.17
251.439	12150.72
251.51	12203.02
251.58	12195.45
251.651	12193.91
251.722	12258.16
251.792	12206.64
251.863	12215.65
251.934	12275.9
252.005	12391.05
252.075	12407.35
252.146	12454.58
252.217	12501
252.287	12548.58
252.358	12552.78
252.429	12619.59
252.499	12616.5
252.57	12623.16
252.641	12671.36
252.711	12672.95
252.782	12634.68
252.852	12714.89
252.923	12718.41
252.994	12726.41
253.064	12769.79
253.135	12744.05
253.205	12720
253.276	12803.39
253.347	12863.69
253.417	12832.36
253.488	12812.06
253.558	12798.71
253.629	12788.83
253.699	12800.78
253.77	12821.9
253.841	12813.07
253.911	12824.11
253.982	12836.94
254.052	12866.63
254.123	12872.99
254.193	12876.51
254.264	13006.43
254.334	12970.32
254.405	12936.77
254.475	12906.11
254.546	12916.09
254.616	12984.64
254.687	13016.4
254.757	13032.6
254.827	13035.25
254.898	13062.39
254.968	13072.13
255.039	13058.1
255.109	13098.21
255.18	13072.27
255.25	13003.87
255.321	13042.92
255.391	12996.59
255.461	13082.92
255.532	13000.49
255.602	12986.85
255.673	12934.88
255.743	12894.59
255.813	12822.91
255.884	12872.32
255.954	12901.29
256.024	12967.43
256.095	12969.26
256.165	12926.07
256.235	12949.64
256.306	12932.24
256.376	12979.96
256.446	13011.25
256.517	13047.02
256.587	13092.72
256.657	13113.83
256.728	13140.05
256.798	13152.97
256.868	13156.73
256.938	13119.37
257.009	13168.54
257.079	13212.08
257.149	13314.95
257.219	13254.69
257.29	13293.63
257.36	13240.17
257.43	13278.31
257.5	13215.88
257.571	13207.78
257.641	13248.61
257.711	13206.82
257.781	13241.96
257.852	13260.08
257.922	13202.09
257.992	13200.64
258.062	13197.51
258.132	13242.78
258.202	13247.5
258.273	13252.32
258.343	13327.67
258.413	13320.44
258.483	13322.65
258.553	13284.48
258.623	13251.98
258.693	13286.98
258.764	13347.43
258.834	13407.5
258.904	13426.83
258.974	13418.87
259.044	13422.83
259.114	13449.2
259.184	13480.63
259.254	13492.97
259.324	13438.16
259.394	13489.64
259.464	13573.18
259.535	13568.17
259.605	13554.24
259.675	13545.03
259.745	13584.27
259.815	13553.95
259.885	13559.06
259.955	13665.59
260.025	13654.64
260.095	13663.08
260.165	13690.46
260.235	13749.71
260.305	13734.18
260.375	13701.45
260.445	13786.25
260.515	13849.49
260.585	13904.21
260.655	13914.62
260.725	13958.73
260.795	14004.04
260.865	14072.73
260.934	14034.07
261.004	14069.84
261.074	14081.32
261.144	14141.77
261.214	14173.15
261.284	14180.28
261.354	14214.99
261.424	14167.85
261.494	14240.79
261.564	14256.4
261.634	14283.79
261.703	14221.94
261.773	14253.42
261.843	14294.87
261.913	14284.32
261.983	14232.64
262.053	14245.51
262.123	14240.5
262.192	14206.08
262.262	14242.14
262.332	14193.45
262.402	14224.35
262.472	14230.33
262.541	14171.51
262.611	14216.59
262.681	14191.18
262.751	14223.24
262.821	14220.92
262.89	14196.97
262.96	14225.36
263.03	14297.14
263.1	14321.09
263.169	14339.41
263.239	14376.87
263.309	14440.16
263.379	14481.61
263.448	14502.34
263.518	14529.38
263.588	14546.74
263.657	14601.16
263.727	14635.63
263.797	14650.33
263.867	14652.84
263.936	14621.6
264.006	14683.35
264.076	14675.93
264.145	14675.73
264.215	14661.51
264.285	14709.58
264.354	14664.07
264.424	14653.08
264.494	14597.5
264.563	14585.16
264.633	14667.11
264.702	14684.07
264.772	14625.56
264.842	14614.23
264.911	14646.91
264.981	14603.38
265.05	14614.66
265.12	14620.16
265.19	14635.15
265.259	14675.5
265.329	14714.16
265.398	14739.51
265.468	14840.06
265.537	14835.05
265.607	14871.01
265.676	14919.07
265.746	14946.93
265.815	15006.32
265.885	15010.75
265.955	15006.75
266.024	15010.46
266.094	14944.48
266.163	15011.09
266.232	15081.8
266.302	15093.71
266.371	15119.11
266.441	15146.1
266.51	15194.4
266.58	15191.99
266.649	15177.1
266.719	15236.77
266.788	15259.91
266.858	15330.43
266.927	15257.16
266.996	15293.02
267.066	15311.77
267.135	15285.74
267.205	15324.16
267.274	15344.26
267.343	15396.66
267.413	15414.35
267.482	15475.56
267.552	15539.43
267.621	15482.51
267.69	15436.81
267.76	15458.89
267.829	15481.64
267.898	15494.61
267.968	15479.47
268.037	15524.06
268.106	15574.67
268.176	15539.63
268.245	15552.01
268.314	15553.56
268.384	15625.62
268.453	15644.8
268.522	15677.63
268.592	15749.97
268.661	15731.95
268.73	15766.12
268.799	15761.5
268.869	15845.46
268.938	15794.08
269.007	15781.31
269.076	15802.56
269.146	15858.38
269.215	15893.52
269.284	15969.91
269.353	15977.62
269.422	15986.11
269.492	15983.12
269.561	15902
269.63	15929.23
269.699	15926.58
269.768	15937.23
269.838	15946.48
269.907	15985.76
269.976	15957.66
270.045	15893.22
270.114	15939.78
270.183	15943.83
270.253	15978.63
270.322	15931.97
270.391	15962.14
270.46	16035.94
270.529	16086.4
270.598	16129.53
270.667	16136.23
270.736	16102.45
270.806	16130.45
270.875	16187.42
270.944	16193.26
271.013	16324.5
271.082	16356.31
271.151	16386.67
271.22	16349.75
271.289	16369.42
271.358	16375.15
271.427	16413.66
271.496	16442.25
271.565	16441.09
271.634	16469.28
271.703	16590.54
271.772	16653.53
271.841	16673.49
271.91	16644.71
271.979	16667.56
272.048	16631.6
272.117	16680.23
272.186	16682.98
272.255	16735.42
272.324	16776.04
272.393	16809.59
272.462	16800.24
272.531	16818.89
272.6	16837.83
272.669	16912.59
272.738	16912.78
272.807	16947.86
272.876	16938.08
272.945	17085.12
273.013	17137.84
273.082	17200.4
273.151	17109.99
273.22	17142.96
273.289	17164.89
273.358	17249.23
273.427	17256.69
273.496	17321.61
273.564	17349.56
273.633	17413.85
273.702	17404.12
273.771	17418.24
273.84	17449.61
273.909	17484.36
273.977	17519.64
274.046	17531.73
274.115	17589.23
274.184	17589.85
274.253	17608.21
274.322	17684.12
274.39	17621.52
274.459	17615.79
274.528	17560.6
274.597	17580.46
274.665	17612.12
274.734	17675.06
274.803	17678.53
274.872	17700.6
274.94	17696.07
275.009	17836.69
275.078	17821.61
275.147	17851.1
275.215	17882.33
275.284	17952.55
275.353	17960.84
275.421	17932.69
275.49	18028.78
275.559	18035.1
275.627	18063
275.696	18083.38
275.765	18129.41
275.833	18149.89
275.902	18192.1
275.971	18280.49
276.039	18368
276.108	18418.65
276.177	18460.09
276.245	18468.43
276.314	18504.91
276.383	18558.11
276.451	18479.61
276.52	18534.64
276.588	18617.53
276.657	18677.57
276.725	18684.42
276.794	18735.5
276.863	18816.51
276.931	18775.69
277	18846.29
277.068	18918.82
277.137	19017.65
277.205	19043.29
277.274	19141.74
277.342	19228.63
277.411	19205.4
277.48	19212.58
277.548	19215.33
277.617	19253.5
277.685	19282.6
277.754	19337.3
277.822	19354.21
277.89	19438.16
277.959	19463.51
278.027	19450.79
278.096	19452.86
278.164	19587.99
278.233	19602.02
278.301	19609.87
278.37	19677.19
278.438	19669.05
278.507	19727.94
278.575	19686.69
278.643	19723.12
278.712	19705.63
278.78	19684.18
278.849	19773.48
278.917	19847.31
278.985	19888.56
279.054	19943.93
279.122	20027.59
279.191	20058.48
279.259	20094.58
279.327	20065.18
279.396	20166.19
279.464	20192.17
279.532	20254.48
279.601	20269.61
279.669	20303.93
279.737	20391.69
279.806	20444.12
279.874	20518.48
279.942	20543.45
280.011	20575.69
280.079	20640.75
280.147	20737.81
280.215	20801.57
280.284	20829.86
280.352	20827.21
280.42	20885.14
280.488	20888.03
280.557	20902.35
280.625	20962.45
280.693	21002.69
280.761	21061.63
280.83	21041.48
280.898	21126.55
280.966	21107.95
281.034	21055.89
281.102	21052.76
281.171	21074.88
281.239	21143.57
281.307	21155.14
281.375	21164.68
281.443	21287.98
281.512	21315.31
281.58	21375.81
281.648	21376.09
281.716	21416.68
281.784	21460.01
281.852	21486.85
281.92	21538.19
281.989	21620.91
282.057	21610.98
282.125	21819.66
282.193	21851.96
282.261	21902.67
282.329	21932.51
282.397	21999.5
282.465	22052.52
282.533	22151.62
282.601	22156.44
282.67	22117.73
282.738	22143.85
282.806	22227
282.874	22234.24
282.942	22283.6
283.01	22306.75
283.078	22363.92
283.146	22393.51
283.214	22463.27
283.282	22514.04
283.35	22593.26
283.418	22614.86
283.486	22671.84
283.554	22564.09
283.622	22611.77
283.69	22657.42
283.758	22682.69
283.826	22741.26
283.894	22824.34
283.962	22933.52
284.03	23029.13
284.098	23096.57
284.165	23121.74
284.233	23175.07
284.301	23193.87
284.369	23209.21
284.437	23234.43
284.505	23257.91
284.573	23352.42
284.641	23359.89
284.709	23433.25
284.777	23418.1
284.845	23486.45
284.912	23549.09
284.98	23615.25
285.048	23648
285.116	23710.93
285.184	23803.58
285.252	23852.53
285.319	23842.94
285.387	23844.92
285.455	23837.25
285.523	23903.37
285.591	23955.88
285.659	24000.5
285.726	24090.56
285.794	24105.51
285.862	24135.99
285.93	24182
285.997	24219.33
286.065	24257.63
286.133	24260.48
286.201	24312.85
286.269	24311.94
286.336	24330.89
286.404	24349.8
286.472	24421.25
286.539	24393.18
286.607	24378.32
286.675	24417.26
286.743	24495.02
286.81	24535.21
286.878	24629.53
286.946	24643.57
287.013	24689.15
287.081	24730.7
287.149	24725.92
287.216	24837.96
287.284	24873.23
287.352	24931.6
287.419	24960.31
287.487	25052.09
287.555	25116.91
287.622	25151.16
287.69	25215.54
287.758	25311.34
287.825	25345.21
287.893	25350.85
287.96	25424.47
288.028	25510.57
288.096	25574.43
288.163	25622.45
288.231	25626.46
288.298	25669.52
288.366	25765.05
288.433	25797.13
288.501	25821.27
288.569	25866.39
288.636	25877.5
288.704	25959.37
288.771	26030.62
288.839	26043.22
288.906	26064.31
288.974	26137.28
289.041	26171.7
289.109	26176.43
289.176	26241.15
289.244	26295.6
289.311	26376.08
289.379	26452.6
289.446	26503.02
289.514	26544.41
289.581	26583.62
289.649	26648.12
289.716	26685.26
289.783	26707.28
289.851	26811.14
289.918	26849.87
289.986	26939.36
290.053	26999.83
290.121	27034.99
290.188	27093.15
290.255	27235.6
290.323	27266.99
290.39	27287.43
290.458	27360.73
290.525	27454.92
290.592	27476.81
290.66	27529.75
290.727	27561.83
290.794	27653.15
290.862	27696.3
290.929	27745.92
290.996	27797.81
291.064	27862.94
291.131	27953.66
291.198	28025.71
291.266	28064.03
291.333	28108.38
291.4	28161.79
291.468	28259.92
291.535	28298.92
291.602	28350.68
291.669	28366.83
291.737	28425.25
291.804	28474.85
291.871	28564.32
291.938	28637.42
292.006	28777.11
292.073	28854.55
292.14	28936.63
292.207	28954.72
292.275	29001.27
292.342	29079.27
292.409	29203.81
292.476	29318.15
292.543	29334.35
292.611	29379.32
292.678	29492.31
292.745	29627.32
292.812	29702.49
292.879	29733.79
292.946	29785.43
293.014	29861.14
293.081	29938.73
293.148	30017.12
293.215	30115.43
293.282	30148.32
293.349	30218.01
293.416	30186.21
293.484	30276.01
293.551	30356.67
293.618	30445.46
293.685	30567.07
293.752	30590.15
293.819	30629.51
293.886	30650.32
293.953	30717.72
294.02	30805.23
294.087	30862.75
294.154	30879.59
294.221	30983.32
294.288	31036.85
294.356	31155.19
294.423	31227.33
294.49	31253.66
294.557	31352.52
294.624	31365.4
294.691	31476.31
294.758	31523.24
294.825	31600.07
294.892	31624.77
294.959	31663.7
295.026	31738.86
295.093	31767.54
295.16	31811.25
295.226	31853.09
295.293	31949.54
295.36	32015.4
295.427	32090.68
295.494	32178.19
295.561	32256.84
295.628	32367.96
295.695	32467.03
295.762	32518.05
295.829	32590.88
295.896	32696.05
295.963	32771.7
296.03	32858.26
296.096	32918.93
296.163	33005.97
296.23	33105.22
296.297	33205.03
296.364	33255.13
296.431	33330.07
296.498	33367.86
296.564	33512.36
296.631	33584.48
296.698	33607.64
296.765	33726.79
296.832	33748.9
296.899	33754.91
296.965	33864.37
297.032	33848.66
297.099	33946.77
297.166	34034.38
297.233	34082.96
297.299	34102.5
297.366	34161.52
297.433	34221.63
297.5	34307.57
297.566	34365.13
297.633	34413.78
297.7	34465.42
297.767	34525.54
297.833	34597.81
297.9	34674.56
297.967	34667.82
298.033	34751.59
298.1	34913.87
298.167	34930.75
298.234	35002.72
298.3	35073.82
298.367	35111.17
298.434	35175.5
298.5	35192.1
298.567	35213.39
298.634	35254.33
298.7	35369.1
298.767	35427.52
298.834	35532.9
298.9	35565.66
298.967	35602.29
299.033	35675.76
299.1	35773.73
299.167	35864.35
299.233	35885.85
299.3	35963.67
299.366	36068.85
299.433	36154.38
299.5	36105.84
299.566	36165.42
299.633	36265.74
299.699	36367.52
299.766	36409.35
299.832	36477.41
299.899	36554.93
299.965	36645.44
300.032	36679.41
300.099	36753.2
300.165	36813.73
300.232	36831.6
300.298	36878.44
300.365	36951.54
300.431	37014.56
300.498	37048.64
300.564	37113.3
300.631	37202.43
300.697	37308.67
300.763	37351.54
300.83	37389.41
300.896	37480.29
300.963	37564.04
301.029	37631.01
301.096	37679.33
301.162	37767.6
301.229	37805.28
301.295	37828.45
301.361	37904.74
301.428	37965.08
301.494	37947.11
301.561	38003.59
301.627	38075.89
301.693	38131.83
301.76	38199.48
301.826	38228.48
301.892	38312.06
301.959	38389.97
302.025	38424.69
302.092	38445.82
302.158	38519.98
302.224	38584.64
302.291	38605.13
302.357	38645.35
302.423	38666.82
302.49	38682.85
302.556	38760.77
302.622	38807.5
302.688	38889.78
302.755	38958.48
302.821	39042.02
302.887	39142.26
302.954	39180.88
303.02	39257.64
303.086	39335.85
303.152	39382.3
303.219	39411.78
303.285	39454.73
303.351	39512.46
303.417	39578.24
303.483	39600.05
303.55	39629.64
303.616	39681.05
303.682	39725.54
303.748	39747.7
303.815	39840.22
303.881	39926.94
303.947	39924.71
304.013	39972.32
304.079	39998.37
304.145	39987.73
304.212	40029.56
304.278	40035.49
304.344	40066.1
304.41	40067.21
304.476	40069.59
304.542	40087.43
304.608	40141.31
304.674	40159.88
304.741	40192.54
304.807	40230.2
304.873	40293.52
304.939	40383.66
305.005	40358.15
305.071	40396.83
305.137	40440.17
305.203	40402.06
305.269	40436.72
305.335	40527.07
305.401	40565.52
305.467	40589.91
305.533	40646.92
305.599	40714.38
305.666	40791.5
305.732	40850.21
305.798	40927.1
305.864	41051.1
305.93	41122.59
305.996	41174.06
306.062	41194.28
306.128	41217.27
306.194	41223.83
306.259	41266.8
306.325	41286.73
306.391	41368.53
306.457	41440.17
306.523	41504.18
306.589	41635.44
306.655	41650.56
306.721	41624.45
306.787	41626.15
306.853	41708.26
306.919	41709.13
306.985	41720.85
307.051	41755.51
307.117	41772.91
307.183	41799.6
307.248	41747.58
307.314	41788.71
307.38	41838.69
307.446	41914.14
307.512	41920.37
307.578	41977.14
307.644	41995.04
307.709	42014.38
307.775	42032.91
307.841	42057.99
307.907	42105.69
307.973	42069.07
308.039	42116.58
308.104	42180.95
308.17	42223.04
308.236	42222.17
308.302	42276.57
308.368	42279.92
308.433	42312.06
308.499	42340.75
308.565	42339.43
308.631	42391.7
308.696	42365.49
308.762	42365.59
308.828	42388.69
308.894	42384.55
308.959	42369.97
309.025	42390.83
309.091	42426.23
309.156	42452.19
309.222	42508.12
309.288	42489.74
309.354	42461.44
309.419	42482.5
309.485	42480.46
309.551	42530.98
309.616	42540.46
309.682	42562.1
309.748	42594.43
309.813	42602.65
309.879	42607.31
309.945	42624.19
310.01	42648.31
310.076	42693.38
310.141	42708.99
310.207	42697.03
310.273	42747.01
310.338	42786.1
310.404	42766.75
310.469	42763.83
310.535	42757.7
310.601	42728.18
310.666	42797.63
310.732	42875.19
310.797	42869.74
310.863	42855.25
310.928	42875.43
310.994	42901.26
311.059	42915.31
311.125	42934.91
311.191	43014.58
311.256	43011.33
311.322	43044.59
311.387	43016.58
311.453	43945.73
311.518	43980.12
311.584	44010.61
311.649	44048.79
311.715	44061.53
311.78	44108.16
311.846	44113.03
311.911	44181.7
311.976	44217.69
312.042	44189.19
312.107	44176.3
312.173	44192.93
312.238	44230.96
312.304	44250.47
312.369	44250.13
312.434	44264.86
312.5	44276.97
312.565	44199.63
312.631	44249.87
312.696	44276.08
312.761	44319.71
312.827	43427.76
312.892	43509.8
312.958	43530.32
313.023	43563.89
313.088	43589.52
313.154	43580.57
313.219	43590.11
313.284	43589.04
313.35	43612.43
313.415	43614.52
313.48	43634.22
313.546	43673.09
313.611	43724.21
313.676	43725.92
313.741	43752.28
313.807	43805.55
313.872	43858.81
313.937	43913.73
314.003	43984.08
314.068	44012.59
314.133	44060.6
314.198	44056.32
314.264	44020.6
314.329	44034.03
314.394	44043.85
314.459	44071.83
314.525	44157.25
314.59	44185.36
314.655	44171.16
314.72	44217.19
314.785	44273.32
314.851	44281.64
314.916	44263.84
314.981	44246.27
315.046	44250.94
315.111	44245.16
315.176	44244.96
315.242	44284.38
315.307	44306.66
315.372	44276.25
315.437	44279.07
315.502	44284.47
315.567	44357.75
315.632	44350.55
315.698	44382.85
315.763	44404.56
315.828	44401.3
315.893	44406.85
315.958	44414.97
316.023	44415.7
316.088	44375.26
316.153	44312.17
316.218	44306.58
316.283	44265.24
316.348	44226.62
316.413	44225.6
316.479	44188.59
316.544	44078.17
316.609	43981.07
316.674	43857.68
316.739	43738.34
316.804	43616.79
316.869	43486.06
316.934	43342.95
316.999	43220.49
317.064	43030.78
317.129	42871.5
317.194	42727.62
317.259	42550.64
317.324	42352.67
317.389	42170.07
317.454	41991.14
317.518	41865.14
317.583	41753.84
317.648	41639.6
317.713	41490.75
317.778	41259.65
317.843	41115.62
317.908	40953.31
317.973	40773.8
318.038	40642.44
318.103	40481.17
318.168	40330.33
318.233	40182.6
318.297	39965.27
318.362	39789.13
318.427	39618.57
318.492	39476.05
318.557	39261.65
318.622	39107.44
318.687	38983.59
318.751	38814.58
318.816	38667.26
318.881	38488.67
318.946	38252.9
319.011	38039.75
319.075	37829.83
319.14	37651.17
319.205	37439.13
319.27	37260.93
319.335	37041.99
319.399	36838.83
319.464	36674.38
319.529	36431.77
319.594	36225.45
319.658	36063.52
319.723	35847.68
319.788	35670.07
319.853	35415.9
319.917	35249.53
319.982	34998.44
320.047	34785.89
320.112	34609.31
320.176	34353.49
320.241	34137.74
320.306	33946.02
320.37	33718.86
320.435	33538.53
320.5	33347.85
320.564	33127.64
320.629	32897.4
320.694	32701.85
320.758	32472.07
320.823	32234.06
320.888	32051.33
320.952	31802.85
321.017	31562.47
321.082	31339.62
321.146	31130.55
321.211	30907.55
321.275	30674.76
321.34	30438.35
321.405	30206.71
321.469	29957.68
321.534	29729.49
321.598	29472.77
321.663	29274.15
321.727	29073.32
321.792	28809.8
321.857	28576.17
321.921	28351.07
321.986	28113.53
322.05	27825.71
322.115	27605.18
322.179	27356.44
322.244	27070.95
322.308	26858.25
322.373	26617.9
322.437	26381.35
322.502	26193.01
322.566	25952.25
322.631	25727.3
322.695	25497.34
322.76	25239.49
322.824	25018.8
322.889	24769.43
322.953	24519.98
323.018	24191.84
323.082	23881.06
323.146	23601.39
323.211	23315.35
323.275	23059.65
323.34	22797.36
323.404	22582.39
323.468	22324.91
323.533	22070.8
323.597	21814.89
323.662	21541.6
323.726	21306.36
323.79	21034.89
323.855	20698.2
323.919	20427.08
323.983	20159.77
324.048	19771.59
324.112	19912.19
324.177	19115.3
324.241	18070.94
324.305	17044.81
324.37	16037.14
324.434	15056.85
324.498	14790.7
324.562	14490.35
324.627	14145.77
324.691	13812.21
324.755	13420.01
324.82	12979.22
324.884	12520
324.948	12056.44
325.012	11480.29
325.077	10777.12
