Data from 20250701_urea_2M_exp3_MAYP1162681_04-49-49-102.txt Node
Date: Wed Jul 02 04:49:49 BST 2025
User: adleo
Spectrometer: MAYP116268
Trigger mode: 0
Integration Time (sec): 4.000000E0
Scans to average: 1
Electric dark correction enabled: true
Nonlinearity correction enabled: true
Boxcar width: 10
XAxis mode: Wavelengths
Number of Pixels in Spectrum: 2068
>>>>>Begin Spectral Data<<<<<
179.565	3600.54
179.642	3792.73
179.718	3937.85
179.795	4067.77
179.871	4179.7
179.948	4240.34
180.024	4310.41
180.101	4392.61
180.177	4442.27
180.254	4522.09
180.33	4597.92
180.407	4853.59
180.483	5136.46
180.56	5423.4
180.636	5682.98
180.712	5648.86
180.789	5682.38
180.865	5722.3
180.942	5753.13
181.018	5791.11
181.095	5833.73
181.171	5852.77
181.248	5854.45
181.324	5905.51
181.4	5931.56
181.477	5966.54
181.553	6007.06
181.63	6078.41
181.706	6128.48
181.782	6154.42
181.859	6148.32
181.935	6166.37
182.011	6159.99
182.088	6208.8
182.164	6269.12
182.24	6319.11
182.317	6347.03
182.393	6342.38
182.469	6388.12
182.546	6431.61
182.622	6448.98
182.698	6434.34
182.775	6474.81
182.851	6523.59
182.927	6499.39
183.003	6480.05
183.08	6457.88
183.156	6492.87
183.232	6484.75
183.308	6445
183.385	6476.34
183.461	6534.25
183.537	6540.11
183.613	6583.7
183.69	6560.46
183.766	6523.9
183.842	6546.19
183.918	6562.56
183.995	6603.8
184.071	6613.75
184.147	6600.54
184.223	6560.09
184.299	6596.98
184.375	6557.95
184.452	6575.44
184.528	6699.66
184.604	6740.46
184.68	6782.95
184.756	6803.8
184.832	6813.69
184.908	6831.11
184.985	6824.92
185.061	6776.37
185.137	6798.57
185.213	6759.05
185.289	6763.46
185.365	6743.16
185.441	6741.43
185.517	6791.22
185.593	6779.93
185.669	6774.36
185.745	6808.37
185.822	6868.41
185.898	6842.57
185.974	6878.67
186.05	6853.83
186.126	6783.79
186.202	6759.25
186.278	6747.58
186.354	6715.11
186.43	6739.23
186.506	6737.12
186.582	6734.67
186.658	6754.21
186.734	6687.63
186.81	6698.72
186.886	6706.25
186.962	6746.73
187.038	6728.63
187.114	6692.05
187.19	6721.45
187.266	6687.26
187.341	6688.95
187.417	6658.55
187.493	6663.45
187.569	6667.29
187.645	6649.86
187.721	6608.21
187.797	6635.43
187.873	6647.68
187.949	6632.03
188.025	6604.45
188.101	6609.25
188.176	6627.64
188.252	6612.18
188.328	6642.84
188.404	6637.46
188.48	6617.83
188.556	6597.03
188.632	6595.64
188.707	6603.57
188.783	6595.3
188.859	6581.68
188.935	6546.9
189.011	6575.47
189.086	6553.05
189.162	6526.44
189.238	6514.01
189.314	6506.91
189.39	6486.26
189.465	6465.13
189.541	6523.1
189.617	6480.37
189.693	6465.97
189.768	6480.91
189.844	6566.63
189.92	6539.52
189.996	6575.4
190.071	6617.37
190.147	6613.81
190.223	6648.35
190.298	6622.41
190.374	6575.54
190.45	6615.38
190.526	6633.34
190.601	6613.32
190.677	6616.73
190.753	6713.86
190.828	6728.64
190.904	6775.91
190.98	6829.04
191.055	6867.62
191.131	6835.38
191.207	6906.31
191.282	6937.09
191.358	6902.22
191.433	6851.46
191.509	6895.52
191.585	6882.98
191.66	6877.55
191.736	6903.48
191.811	6866.4
191.887	6923.88
191.963	6999.63
192.038	7018.46
192.114	7022.6
192.189	7040.6
192.265	7031.58
192.34	6953.6
192.416	6948.66
192.491	6937.85
192.567	6940.49
192.642	6944.14
192.718	6946.5
192.793	6896.72
192.869	6882.8
192.944	6891.68
193.02	6919.89
193.095	6931.99
193.171	6950.06
193.246	6952.46
193.322	6941.75
193.397	6949.05
193.473	6896.47
193.548	6839.14
193.624	6854.96
193.699	6851.35
193.775	6899.75
193.85	6901.05
193.925	6931.85
194.001	6930.02
194.076	6908.7
194.152	6877.36
194.227	6851.51
194.302	6819.68
194.378	6835.86
194.453	6825.74
194.529	6869.6
194.604	6818.82
194.679	6801.19
194.755	6736.52
194.83	6779.78
194.905	6779.45
194.981	6807.07
195.056	6778.55
195.131	6795.65
195.207	6791.56
195.282	6762.99
195.357	6698.17
195.433	6750.03
195.508	6710.83
195.583	6738.92
195.659	6779.72
195.734	6800.96
195.809	6802.69
195.884	6831.49
195.96	6831.11
196.035	6878.7
196.11	6865.53
196.185	6900.74
196.261	6913.71
196.336	7019.2
196.411	6973.2
196.486	6985.06
196.561	6963.25
196.637	7001.33
196.712	7050.74
196.787	7054.39
196.862	7105.12
196.937	7138.41
197.013	7159.08
197.088	7195.2
197.163	7264.92
197.238	7327.66
197.313	7326.84
197.388	7367.55
197.464	7466.79
197.539	7503.6
197.614	7485.39
197.689	7519.43
197.764	7572.71
197.839	7635.54
197.914	7612.41
197.989	7686.26
198.065	7731.26
198.14	7902.75
198.215	7986.86
198.29	8025.25
198.365	8068.15
198.44	8109.12
198.515	8201.24
198.59	8253.64
198.665	8338.83
198.74	8365.64
198.815	8368.43
198.89	8441.12
198.965	8540.6
199.04	8530.59
199.115	8581.58
199.19	8729.53
199.265	8742.9
199.34	8780.3
199.415	8891.77
199.49	8961.72
199.565	8992.09
199.64	9067.95
199.715	9054.36
199.79	9078.86
199.865	9108.37
199.94	9106.21
200.015	9205.44
200.09	9222.44
200.165	9238.66
200.24	9262.69
200.315	9392.48
200.39	9436.49
200.464	9458.1
200.539	9460.56
200.614	9510.97
200.689	9589.84
200.764	9606.75
200.839	9662.78
200.914	9677.99
200.989	9640.32
201.063	9685.59
201.138	9625.39
201.213	9627.94
201.288	9564.96
201.363	9583.83
201.438	9582.73
201.512	9631.92
201.587	9579.18
201.662	9591.7
201.737	9635.53
201.812	9663.08
201.886	9553.08
201.961	9583.72
202.036	9544.87
202.111	9536.93
202.186	9445.05
202.26	9389.28
202.335	9311.08
202.41	9291.1
202.485	9233.05
202.559	9165.89
202.634	9078.32
202.709	9112.43
202.784	9047.49
202.858	9045.71
202.933	8984.14
203.008	8954.15
203.082	8894.52
203.157	8882.34
203.232	8739.18
203.306	8663.29
203.381	8553.83
203.456	8474.86
203.53	8398.23
203.605	8332.93
203.68	8253.94
203.754	8229.33
203.829	8173.84
203.904	8106.94
203.978	8063.87
204.053	8076.48
204.127	8034.35
204.202	8034.39
204.277	7973.51
204.351	7950.51
204.426	7926.6
204.5	7891.34
204.575	7781.36
204.65	7813.5
204.724	7785.78
204.799	7813.35
204.873	7798.25
204.948	7793.58
205.022	7762.63
205.097	7735.48
205.171	7778.08
205.246	7800.16
205.32	7791.23
205.395	7795.55
205.469	7770.38
205.544	7788.32
205.618	7731.43
205.693	7773.85
205.767	7724.81
205.842	7794.93
205.916	7774.36
205.991	7742.14
206.065	7769.84
206.14	7818.83
206.214	7800.26
206.289	7774.62
206.363	7817.9
206.438	7833.63
206.512	7855.52
206.586	7916.2
206.661	7942.72
206.735	7875.43
206.81	7883.08
206.884	7937.79
206.958	7895.29
207.033	7951.43
207.107	7978.53
207.181	8084.09
207.256	8061.72
207.33	8129.77
207.405	8171.66
207.479	8235.29
207.553	8257.65
207.628	8200.59
207.702	8241.32
207.776	8220.59
207.851	8234.1
207.925	8282.14
207.999	8269.29
208.073	8257.84
208.148	8264.58
208.222	8229.16
208.296	8333.5
208.371	8384.49
208.445	8420.39
208.519	8514.23
208.593	8554.03
208.668	8541.32
208.742	8553.79
208.816	8563.6
208.89	8600.72
208.965	8593.54
209.039	8615.83
209.113	8671.08
209.187	8737.28
209.261	8724.2
209.336	8793.94
209.41	8861.9
209.484	8861.47
209.558	8933.58
209.632	8982.76
209.707	9016.41
209.781	9086.78
209.855	9134.54
209.929	9195.2
210.003	9211.81
210.077	9212.19
210.151	9371.03
210.226	9482.48
210.3	9564.64
210.374	9638.95
210.448	9659.04
210.522	9696.56
210.596	9740.86
210.67	9775.54
210.744	9933.62
210.818	10044.88
210.892	10109.14
210.966	10093.54
211.041	10146.33
211.115	10138.38
211.189	10219.54
211.263	10274.69
211.337	10293.71
211.411	10347.62
211.485	10324.69
211.559	10366.68
211.633	10370.83
211.707	10266.74
211.781	10296.86
211.855	10180.33
211.929	10151.97
212.003	10087.74
212.077	10115.88
212.151	10148.26
212.225	10171.67
212.299	10127.72
212.373	10082.35
212.447	10065.82
212.52	10157.83
212.594	10165.93
212.668	10192.47
212.742	10138.61
212.816	10118.61
212.89	10097.37
212.964	10080.89
213.038	10082.05
213.112	10118.76
213.186	10167.22
213.26	10080.37
213.333	9917.72
213.407	9925.62
213.481	9926.24
213.555	9957.77
213.629	9908.05
213.703	9844.12
213.777	9834.68
213.85	9768.73
213.924	9869.38
213.998	9861.53
214.072	9827.31
214.146	9773.27
214.219	9756.7
214.293	9726.75
214.367	9713.98
214.441	9735.32
214.515	9692.11
214.588	9601.72
214.662	9473.72
214.736	9389.74
214.81	9411.06
214.883	9428.67
214.957	9382.51
215.031	9328.38
215.105	9240.98
215.178	9186.13
215.252	9152.87
215.326	9050.23
215.4	8962.56
215.473	8780.16
215.547	8694.84
215.621	8629.19
215.694	8619.95
215.768	8524.31
215.842	8462.68
215.915	8397.26
215.989	8284
216.063	8217.33
216.136	8194.72
216.21	8164.56
216.284	8172.21
216.357	8150.47
216.431	8109.48
216.504	8105.63
216.578	8160.25
216.652	8171.49
216.725	8139.21
216.799	8145.22
216.873	8130.41
216.946	8136.76
217.02	8099.85
217.093	8069.93
217.167	7971.52
217.24	7889.39
217.314	7854.97
217.387	7812.35
217.461	7763.78
217.535	7784.79
217.608	7723.3
217.682	7699.2
217.755	7713.24
217.829	7656.97
217.902	7635.23
217.976	7611.67
218.049	7563.83
218.123	7490.99
218.196	7486.09
218.27	7450.89
218.343	7373.55
218.417	7369.65
218.49	7348.31
218.563	7396.14
218.637	7399.26
218.71	7469.27
218.784	7499.14
218.857	7528.22
218.931	7551.23
219.004	7562.48
219.077	7578.45
219.151	7601.28
219.224	7597.62
219.298	7594.07
219.371	7640.57
219.444	7603.42
219.518	7617.46
219.591	7636.69
219.665	7739.38
219.738	7755.68
219.811	7739.05
219.885	7783.29
219.958	7808.97
220.031	7814.79
220.105	7837.92
220.178	7844.08
220.251	7818.73
220.325	7834.75
220.398	7851.29
220.471	7870.62
220.544	7908.61
220.618	7886.29
220.691	7916.25
220.764	7928.66
220.838	7955.4
220.911	7935.15
220.984	8023.58
221.057	8058.16
221.131	8083.5
221.204	7985.33
221.277	8054.04
221.35	8177.77
221.424	8176.95
221.497	8193.69
221.57	8216.24
221.643	8243.67
221.716	8295.02
221.79	8298.48
221.863	8315.86
221.936	8327.64
222.009	8340.53
222.082	8364.88
222.155	8379.22
222.229	8440.05
222.302	8477.34
222.375	8482.97
222.448	8524.01
222.521	8525.02
222.594	8524.78
222.667	8496.75
222.74	8556.69
222.814	8547.5
222.887	8528.14
222.96	8580.98
223.033	8616.65
223.106	8642.73
223.179	8672.87
223.252	8680.28
223.325	8712.13
223.398	8728.26
223.471	8760.31
223.544	8785.09
223.617	8802.03
223.69	8821.71
223.763	8783.54
223.837	8805.25
223.91	8832.2
223.983	8783.89
224.056	8746.85
224.129	8765.28
224.202	8820.98
224.275	8801.58
224.348	8775.5
224.42	8745.27
224.493	8685.11
224.566	8666
224.639	8688.91
224.712	8656.55
224.785	8647.69
224.858	8636.38
224.931	8614.48
225.004	8572.91
225.077	8568.29
225.15	8476.79
225.223	8468.99
225.296	8550.56
225.369	8488.15
225.442	8459.13
225.514	8481.74
225.587	8506.47
225.66	8514.41
225.733	8511.04
225.806	8523.79
225.879	8512.39
225.952	8478.96
226.025	8525.92
226.097	8577.25
226.17	8565.41
226.243	8501.57
226.316	8491.85
226.389	8498.11
226.461	8519.43
226.534	8539.54
226.607	8535.45
226.68	8626.23
226.753	8626.71
226.825	8546.58
226.898	8600.04
226.971	8602.64
227.044	8621.6
227.117	8630.31
227.189	8651.1
227.262	8689.04
227.335	8711.47
227.407	8709.45
227.48	8739.61
227.553	8747.6
227.626	8722.51
227.698	8729.3
227.771	8777.69
227.844	8759.54
227.916	8780.14
227.989	8743.71
228.062	8739.04
228.134	8824.93
228.207	8821.8
228.28	8814.88
228.352	8826.52
228.425	8836.06
228.498	8880.68
228.57	8855.75
228.643	8909.05
228.716	8902.51
228.788	8884.4
228.861	8874.05
228.934	8933.4
229.006	8944.66
229.079	8947.55
229.151	8940.52
229.224	8902.84
229.296	8926.57
229.369	9025.19
229.442	9071.47
229.514	9057.66
229.587	9098.58
229.659	9018.99
229.732	9028.86
229.804	9067.7
229.877	9146.35
229.949	9178.32
230.022	9225
230.094	9229.71
230.167	9219.16
230.239	9177.63
230.312	9169.97
230.384	9237.21
230.457	9236.68
230.529	9245.77
230.602	9250.64
230.674	9258.15
230.747	9308.14
230.819	9332.41
230.892	9221.38
230.964	9216.18
231.037	9241.77
231.109	9236.24
231.181	9275.03
231.254	9247.16
231.326	9235.08
231.399	9208.96
231.471	9185.7
231.544	9111.73
231.616	9151.77
231.688	9155.58
231.761	9152.16
231.833	9138.11
231.905	9057.25
231.978	9050.47
232.05	9032.32
232.122	9031.7
232.195	9009.88
232.267	9032.95
232.339	9009.83
232.412	9065.23
232.484	9043.03
232.556	9017.15
232.629	9082.41
232.701	9104.9
232.773	9105.86
232.846	9095.08
232.918	9102.64
232.99	9116.08
233.062	9164.71
233.135	9179.59
233.207	9144.73
233.279	9190.02
233.351	9228.77
233.424	9234.64
233.496	9216.73
233.568	9304.61
233.64	9273.94
233.713	9289.64
233.785	9291.85
233.857	9305.14
233.929	9256.67
234.001	9324.45
234.074	9387.98
234.146	9320.89
234.218	9310.73
234.29	9316.41
234.362	9303.75
234.434	9256.75
234.507	9217.17
234.579	9156.17
234.651	9138.59
234.723	9170.03
234.795	9181.35
234.867	9171.09
234.939	9227.58
235.012	9247.99
235.084	9243.46
235.156	9278.7
235.228	9262.14
235.3	9248.46
235.372	9258.43
235.444	9321.98
235.516	9239.42
235.588	9245
235.66	9259.3
235.732	9233.25
235.804	9419.19
235.876	9470.36
235.948	9534.32
236.02	9552.76
236.092	9570.04
236.164	9581.06
236.236	9579.04
236.308	9575.14
236.38	9602.97
236.452	9580.24
236.524	9597.53
236.596	9665.09
236.668	9695.53
236.74	9723.55
236.812	9750.85
236.884	9783.66
236.956	9788.81
237.028	9783.66
237.1	9772.82
237.172	9844.12
237.244	9925.04
237.316	9809.22
237.388	9785.58
237.46	9757.88
237.532	9815.29
237.604	9803.83
237.675	9879.03
237.747	9928.55
237.819	9925.52
237.891	9928.7
237.963	9922.87
238.035	9917.38
238.107	9807
238.178	9867.09
238.25	9867.47
238.322	9957.19
238.394	9918.66
238.466	9926.61
238.538	9974.14
238.609	10009.53
238.681	9952.21
238.753	9934.43
238.825	9961.26
238.897	10000.12
238.968	10085.22
239.04	10071.49
239.112	10188.58
239.184	10140.69
239.255	10137.71
239.327	10168.24
239.399	10193.63
239.471	10237.84
239.542	10273.77
239.614	10341.12
239.686	10263.07
239.758	10317.6
239.829	10281.07
239.901	10343.83
239.973	10359.73
240.044	10391.43
240.116	10403.28
240.188	10423.75
240.259	10434.88
240.331	10424.91
240.403	10457.86
240.474	10412.66
240.546	10404.47
240.618	10340.15
240.689	10345.06
240.761	10355.61
240.833	10424.08
240.904	10419.21
240.976	10419.79
241.048	10436.27
241.119	10472.84
241.191	10524.63
241.262	10589.02
241.334	10598.03
241.405	10602.22
241.477	10604.97
241.549	10615.67
241.62	10642.07
241.692	10685.19
241.763	10743.55
241.835	10765.14
241.906	10776.95
241.978	10741.49
242.049	10806.44
242.121	10870.13
242.192	10934.75
242.264	10907.43
242.335	10855.44
242.407	10903.52
242.478	10905.45
242.55	10925.93
242.621	10906.12
242.693	10898.08
242.764	10884.29
242.836	10881.88
242.907	10907.71
242.979	10939.76
243.05	10964.24
243.122	10990.26
243.193	10989.1
243.264	10914.94
243.336	10914.03
243.407	10959.09
243.479	11040.04
243.55	11056.81
243.622	11072.14
243.693	11073.87
243.764	11142.06
243.836	11120.04
243.907	11103.13
243.978	11110.45
244.05	11134.36
244.121	11093.16
244.192	11134.51
244.264	11090.99
244.335	11103.57
244.407	11061.4
244.478	11070.07
244.549	11054.56
244.62	11009.98
244.692	11006.75
244.763	11052.82
244.834	11042.79
244.906	11012.96
244.977	11033.3
245.048	11079.82
245.119	11057.07
245.191	11032.68
245.262	10971.1
245.333	11057.06
245.405	11078.65
245.476	11111.42
245.547	11125.49
245.618	11183.75
245.689	11201
245.761	11231.89
245.832	11236.62
245.903	11282.06
245.974	11315.56
246.045	11324.33
246.117	11410.93
246.188	11395.46
246.259	11380.72
246.33	11402.11
246.401	11413.1
246.473	11376.33
246.544	11362.2
246.615	11422.74
246.686	11433.2
246.757	11503.89
246.828	11471.51
246.899	11549.74
246.97	11522.9
247.042	11516.77
247.113	11559.24
247.184	11637.76
247.255	11640.61
247.326	11669.33
247.397	11674.11
247.468	11680.03
247.539	11702.59
247.61	11651.69
247.681	11700.17
247.752	11758.39
247.823	11728.85
247.894	11750.06
247.965	11727.31
248.037	11722.73
248.108	11659.79
248.179	11669.47
248.25	11664.08
248.321	11693.14
248.392	11636.16
248.463	11716.74
248.534	11715.34
248.605	11732.89
248.675	11709.56
248.746	11721.13
248.817	11741.9
248.888	11758.14
248.959	11702.29
249.03	11724.27
249.101	11743.83
249.172	11730.1
249.243	11655.21
249.314	11727.16
249.385	11730.25
249.456	11762.34
249.527	11745.23
249.598	11778.1
249.669	11774.29
249.739	11792.32
249.81	11810.49
249.881	11771.65
249.952	11755.93
250.023	11759.74
250.094	11705.46
250.165	11670.32
250.235	11668.39
250.306	11662.56
250.377	11627.04
250.448	11652.68
250.519	11592.58
250.59	11640.25
250.66	11639.38
250.731	11711.62
250.802	11708.1
250.873	11732.83
250.944	11748.11
251.014	11745.41
251.085	11830.01
251.156	11862.16
251.227	11909.78
251.297	11966.13
251.368	12021.8
251.439	12061.81
251.51	12107.84
251.58	12096.52
251.651	12098.59
251.722	12151.08
251.792	12108.23
251.863	12110.4
251.934	12177.5
252.005	12287.88
252.075	12294.1
252.146	12342.97
252.217	12387.12
252.287	12428.68
252.358	12429.01
252.429	12506.38
252.499	12503.35
252.57	12512.31
252.641	12559.89
252.711	12561.48
252.782	12511.83
252.852	12587.46
252.923	12592.62
252.994	12606.46
253.064	12652.15
253.135	12627.04
253.205	12602.65
253.276	12668.06
253.347	12742.14
253.417	12717.36
253.488	12691.14
253.558	12680.1
253.629	12672.82
253.699	12687.48
253.77	12708.06
253.841	12704.35
253.911	12704.98
253.982	12722.95
254.052	12754.29
254.123	12753.57
254.193	12752.26
254.264	12887.05
254.334	12853.93
254.405	12824.62
254.475	12790.25
254.546	12800.13
254.616	12866.36
254.687	12904.88
254.757	12932.89
254.827	12930.77
254.898	12955.98
254.968	12969.28
255.039	12952.36
255.109	12991.36
255.18	12964.41
255.25	12896.78
255.321	12926.33
255.391	12892.78
255.461	12978.01
255.532	12893.74
255.602	12882.7
255.673	12830.59
255.743	12795.98
255.813	12721.7
255.884	12756.51
255.954	12794.83
256.024	12861.16
256.095	12860.49
256.165	12823.42
256.235	12842.7
256.306	12826.89
256.376	12868.44
256.446	12906.62
256.517	12947.55
256.587	12985.29
256.657	13000.14
256.728	13026.07
256.798	13038.99
256.868	13034.9
256.938	12996.04
257.009	13042.66
257.079	13085.37
257.149	13180.91
257.219	13114.96
257.29	13159.74
257.36	13112.79
257.43	13149.04
257.5	13081.7
257.571	13073.94
257.641	13110.09
257.711	13078.52
257.781	13112.5
257.852	13133.47
257.922	13073.5
257.992	13068.97
258.062	13071.57
258.132	13116.45
258.202	13123.68
258.273	13132.99
258.343	13202.84
258.413	13188.91
258.483	13192.81
258.553	13156.61
258.623	13132.27
258.693	13161.57
258.764	13223.57
258.834	13297.32
258.904	13312.8
258.974	13301.66
259.044	13313.47
259.114	13343.02
259.184	13364.52
259.254	13371.08
259.324	13321.71
259.394	13364.33
259.464	13445.99
259.535	13446.91
259.605	13439.96
259.675	13430.52
259.745	13467.97
259.815	13443.34
259.885	13451.87
259.955	13567.66
260.025	13558.84
260.095	13574.98
260.165	13608.63
260.235	13672.41
260.305	13650.62
260.375	13615.86
260.445	13706.87
260.515	13768.63
260.585	13808.98
260.655	13819.77
260.725	13866.73
260.795	13902.11
260.865	13970.8
260.934	13934.46
261.004	13965.02
261.074	13968.06
261.144	14024.12
261.214	14049.14
261.284	14054.92
261.354	14098.36
261.424	14042.97
261.494	14116.1
261.564	14121.02
261.634	14152.35
261.703	14081.59
261.773	14108.82
261.843	14147.44
261.913	14138.71
261.983	14088.63
262.053	14109.93
262.123	14108.53
262.192	14064.67
262.262	14103.66
262.332	14053.48
262.402	14088.19
262.472	14095.13
262.541	14042.59
262.611	14085.11
262.681	14067.65
262.751	14109.83
262.821	14113.59
262.89	14089.01
262.96	14109.26
263.03	14189.13
263.1	14199.11
263.169	14223.5
263.239	14255.17
263.309	14319.14
263.379	14354.09
263.448	14371.06
263.518	14391.64
263.588	14407.5
263.657	14478.02
263.727	14514.32
263.797	14535.97
263.867	14528.64
263.936	14487.81
264.006	14546.09
264.076	14541.32
264.145	14537.46
264.215	14513.5
264.285	14551.15
264.354	14511.77
264.424	14496.63
264.494	14441.63
264.563	14436.38
264.633	14508.63
264.702	14537.07
264.772	14483.47
264.842	14479.42
264.911	14509.79
264.981	14474.46
265.05	14496.78
265.12	14492.97
265.19	14507.38
265.259	14547.73
265.329	14584.8
265.398	14616.76
265.468	14711.58
265.537	14716.98
265.607	14754.57
265.676	14809.77
265.746	14828.33
265.815	14884.2
265.885	14894.56
265.955	14886.08
266.024	14885.74
266.094	14827.37
266.163	14883.09
266.232	14950.91
266.302	14959.1
266.371	14987.35
266.441	15010.2
266.51	15053.05
266.58	15059.9
266.649	15038.2
266.719	15089.63
266.788	15125.88
266.858	15203.39
266.927	15133.69
266.996	15159.09
267.066	15183.24
267.135	15153.16
267.205	15200.5
267.274	15219.68
267.343	15274.83
267.413	15301.29
267.482	15372
267.552	15440.79
267.621	15392.2
267.69	15344.05
267.76	15374.22
267.829	15399.92
267.898	15416.88
267.968	15391.77
268.037	15426.23
268.106	15477.66
268.176	15442.04
268.245	15441.18
268.314	15427.58
268.384	15491.16
268.453	15511.17
268.522	15534.64
268.592	15601.06
268.661	15584.67
268.73	15626.32
268.799	15615.23
268.869	15691.15
268.938	15643.29
269.007	15627.38
269.076	15651.82
269.146	15710.62
269.215	15738.29
269.284	15810.92
269.353	15802.15
269.422	15817.19
269.492	15818.69
269.561	15739.59
269.63	15771.79
269.699	15771.21
269.768	15791.5
269.838	15807.74
269.907	15842.4
269.976	15821.29
270.045	15766.91
270.114	15806.2
270.183	15811.79
270.253	15845.24
270.322	15791.83
270.391	15817.43
270.46	15884.62
270.529	15935.61
270.598	15972.14
270.667	15976.38
270.736	15955.76
270.806	15991.13
270.875	16047.14
270.944	16058.37
271.013	16189.47
271.082	16231.16
271.151	16276.32
271.22	16238.2
271.289	16251.36
271.358	16258.44
271.427	16295.84
271.496	16322.16
271.565	16321.34
271.634	16345.35
271.703	16472.96
271.772	16543.28
271.841	16550.18
271.91	16522.22
271.979	16536.1
272.048	16513.93
272.117	16563.33
272.186	16558.32
272.255	16613.12
272.324	16658.52
272.393	16700.5
272.462	16683.15
272.531	16697.08
272.6	16708.64
272.669	16781.86
272.738	16800.27
272.807	16837.57
272.876	16819.21
272.945	16962.1
273.013	17025
273.082	17084.42
273.151	16998.16
273.22	17024.86
273.289	17059.8
273.358	17135.85
273.427	17149.01
273.496	17204.82
273.564	17239.8
273.633	17298.12
273.702	17291.32
273.771	17296.58
273.84	17329.54
273.909	17373.73
273.977	17419.23
274.046	17425.59
274.115	17482.99
274.184	17478.89
274.253	17493.59
274.322	17573.11
274.39	17505.64
274.459	17493.74
274.528	17449.16
274.597	17459.23
274.665	17494.7
274.734	17572.29
274.803	17581.79
274.872	17604.87
274.94	17598.99
275.009	17826.18
275.078	17824.25
275.147	17854.95
275.215	17890.18
275.284	17950.42
275.353	17961.74
275.421	17924.64
275.49	18026.75
275.559	18041.5
275.627	18066.08
275.696	18089.6
275.765	18137.3
275.833	18171.18
275.902	18216.72
275.971	18298.46
276.039	18398.94
276.108	18455.27
276.177	18483.36
276.245	18497.82
276.314	18528.91
276.383	18590.97
276.451	18417.76
276.52	18468.26
276.588	18552.88
276.657	18608.83
276.725	18614.57
276.794	18663.67
276.863	18740.53
276.931	18701.02
277	18762.46
277.068	18838.75
277.137	18943.75
277.205	18973.39
277.274	19067.27
277.342	19137.09
277.411	19123.5
277.48	19124.42
277.548	19130.01
277.617	19168.22
277.685	19189.91
277.754	19258.34
277.822	19281.23
277.89	19382.53
277.959	19403.39
278.027	19383.44
278.096	19391.92
278.164	19530.77
278.233	19552.5
278.301	19560.6
278.37	19633.75
278.438	19635.78
278.507	19695.63
278.575	19656.79
278.643	19690.09
278.712	19674.42
278.78	19675
278.849	19748.49
278.917	19820.3
278.985	19850.46
279.054	19908.83
279.122	19995.33
279.191	20022.22
279.259	20051.57
279.327	20013.2
279.396	20111.42
279.464	20153.54
279.532	20222.98
279.601	20236.24
279.669	20263.81
279.737	20349.39
279.806	20393.49
279.874	20471.52
279.942	20493.93
280.011	20518.12
280.079	20582.27
280.147	20674.94
280.215	20731.42
280.284	20766.22
280.352	20769.4
280.42	20841.31
280.488	20850.41
280.557	20861.93
280.625	20912.54
280.693	20959.77
280.761	21019.19
280.83	21001.07
280.898	21083.49
280.966	21067.44
281.034	21010.56
281.102	21016.3
281.171	21049.41
281.239	21125.96
281.307	21141.67
281.375	21157.67
281.443	21285.06
281.512	21321.07
281.58	21386.14
281.648	21385.81
281.716	21432.41
281.784	21474.92
281.852	21499.75
281.92	21548.14
281.989	21631.63
282.057	21624.45
282.125	21819.78
282.193	21851.49
282.261	21905.72
282.329	21926.4
282.397	21984.38
282.465	22041.93
282.533	22133.36
282.601	22140.69
282.67	22105.55
282.738	22110.85
282.806	22186.91
282.874	22188.45
282.942	22240.67
283.01	22267.33
283.078	22328.02
283.146	22361.18
283.214	22440.25
283.282	22492.8
283.35	22571.1
283.418	22590.24
283.486	22650.02
283.554	22550.37
283.622	22594.2
283.69	22631.32
283.758	22666.03
283.826	22724.27
283.894	22794.03
283.962	22902.05
284.03	22989.56
284.098	23042.06
284.165	23075.42
284.233	23124.84
284.301	23150.21
284.369	23175.14
284.437	23187.77
284.505	23224.65
284.573	23322.93
284.641	23329.49
284.709	23393.44
284.777	23380.47
284.845	23454.79
284.912	23526.01
284.98	23581.32
285.048	23614.84
285.116	23687.76
285.184	23777.95
285.252	23823.67
285.319	23834.52
285.387	23845.47
285.455	23845.57
285.523	23910.19
285.591	23962.99
285.659	24015.9
285.726	24104.99
285.794	24109.67
285.862	24155.54
285.93	24200.34
285.997	24221.13
286.065	24249.35
286.133	24258.61
286.201	24296.52
286.269	24296.96
286.336	24311.96
286.404	24346.45
286.472	24423.11
286.539	24403.19
286.607	24397.01
286.675	24455.97
286.743	24524.95
286.81	24551.64
286.878	24645.67
286.946	24673.5
287.013	24706.59
287.081	24744.61
287.149	24743.46
287.216	24840.72
287.284	24871.79
287.352	24922.5
287.419	24954.59
287.487	25054.86
287.555	25116.39
287.622	25157.06
287.69	25217.68
287.758	25293.78
287.825	25319.83
287.893	25326.11
287.96	25389.84
288.028	25464.45
288.096	25511.08
288.163	25562.82
288.231	25569.96
288.298	25606.46
288.366	25697.93
288.433	25751.29
288.501	25781.85
288.569	25841.26
288.636	25863.66
288.704	25953.07
288.771	26022.15
288.839	26042.76
288.906	26057.39
288.974	26140.5
289.041	26178.34
289.109	26202.48
289.176	26277.28
289.244	26337.53
289.311	26426.32
289.379	26505.3
289.446	26565.14
289.514	26601.02
289.581	26640.09
289.649	26702.46
289.716	26746.6
289.783	26756.84
289.851	26858.68
289.918	26894.55
289.986	26978.75
290.053	27038.73
290.121	27081.24
290.188	27130.61
290.255	27269.92
290.323	27312.33
290.39	27332.72
290.458	27406.12
290.525	27495.54
290.592	27525.26
290.66	27581.48
290.727	27609.5
290.794	27706.39
290.862	27750.07
290.929	27814
290.996	27868.01
291.064	27939.66
291.131	28038.94
291.198	28138.45
291.266	28172.95
291.333	28221.16
291.4	28274.29
291.468	28382
291.535	28401.57
291.602	28468.23
291.669	28489.74
291.737	28550.34
291.804	28597.52
291.871	28692.51
291.938	28757.05
292.006	28892.15
292.073	28970.61
292.14	29049.56
292.207	29062.56
292.275	29108.54
292.342	29174.45
292.409	29302.77
292.476	29430.66
292.543	29436.61
292.611	29480.04
292.678	29590.7
292.745	29719.96
292.812	29792
292.879	29818.27
292.946	29884.75
293.014	29962.89
293.081	30029.94
293.148	30116.23
293.215	30204.47
293.282	30230.98
293.349	30307.54
293.416	30285.47
293.484	30380.41
293.551	30457.4
293.618	30558.14
293.685	30681.7
293.752	30717.22
293.819	30753.92
293.886	30754.79
293.953	30819.92
294.02	30892.04
294.087	30948.25
294.154	30974.72
294.221	31068.14
294.288	31117.41
294.356	31226.37
294.423	31292.85
294.49	31316.66
294.557	31397.71
294.624	31417.32
294.691	31529.93
294.758	31580.35
294.825	31649.05
294.892	31667.35
294.959	31707.74
295.026	31778.65
295.093	31810.14
295.16	31852.59
295.226	31897.3
295.293	32034.65
295.36	32101.38
295.427	32196.53
295.494	32283.46
295.561	32358.14
295.628	32486.19
295.695	32592.77
295.762	32646.94
295.829	32723.65
295.896	32842
295.963	32932.14
296.03	33027.87
296.096	33095.23
296.163	33168.22
296.23	33268.05
296.297	33353.81
296.364	33405.61
296.431	33472.45
296.498	33507.63
296.564	33640.69
296.631	33708.21
296.698	33709.03
296.765	33824.16
296.832	33841.22
296.899	33861.15
296.965	33974.11
297.032	33946.17
297.099	34053.36
297.166	34137.48
297.233	34177.68
297.299	34201.19
297.366	34243.29
297.433	34298.07
297.5	34376.84
297.566	34448.08
297.633	34497.89
297.7	34571.7
297.767	34625.51
297.833	34704.58
297.9	34774.01
297.967	34785.55
298.033	34877.57
298.1	35017.58
298.167	35047.46
298.234	35117.79
298.3	35193.6
298.367	35221.45
298.434	35292.38
298.5	35310.39
298.567	35341.24
298.634	35387.96
298.7	35494.2
298.767	35558.92
298.834	35645.72
298.9	35674.64
298.967	35701.08
299.033	35785.67
299.1	35875.4
299.167	35985.24
299.233	36001.2
299.3	36089.86
299.366	36187.33
299.433	36261.21
299.5	36234.32
299.566	36289.83
299.633	36388.26
299.699	36458.69
299.766	36506.2
299.832	36572.41
299.899	36635.76
299.965	36725.26
300.032	36769.28
300.099	36854.09
300.165	36921.77
300.232	36970.02
300.298	37029.29
300.365	37110.3
300.431	37162.5
300.498	37192.31
300.564	37249.65
300.631	37342.62
300.697	37445.46
300.763	37488.81
300.83	37546.7
300.896	37632.78
300.963	37717.36
301.029	37777.97
301.096	37841.05
301.162	37923.05
301.229	37954.18
301.295	37983.03
301.361	38043.92
301.428	38112.62
301.494	38102.18
301.561	38163.48
301.627	38224.08
301.693	38281.29
301.76	38339.13
301.826	38375.5
301.892	38453.31
301.959	38523.98
302.025	38563.76
302.092	38577.51
302.158	38657.89
302.224	38706.85
302.291	38723.95
302.357	38765.77
302.423	38789.14
302.49	38824.16
302.556	38918.99
302.622	38968.15
302.688	39048.01
302.755	39134.1
302.821	39197.15
302.887	39281.57
302.954	39323.11
303.02	39397.24
303.086	39456.61
303.152	39506.45
303.219	39529.96
303.285	39595.85
303.351	39659.6
303.417	39712.56
303.483	39733.98
303.55	39763.86
303.616	39808.47
303.682	39856.61
303.748	39870.06
303.815	39968.86
303.881	40040.53
303.947	40039.85
304.013	40094.02
304.079	40119.24
304.145	40098.05
304.212	40148.05
304.278	40155.24
304.344	40183.23
304.41	40184.45
304.476	40208.45
304.542	40248.05
304.608	40320.6
304.674	40311.12
304.741	40332.61
304.807	40386.21
304.873	40449.48
304.939	40538.81
305.005	40523.6
305.071	40564.85
305.137	40621.65
305.203	40582.48
305.269	40616.31
305.335	40707.15
305.401	40741.81
305.467	40768.49
305.533	40838.28
305.599	40900.64
305.666	40973.68
305.732	41015.87
305.798	41103.45
305.864	41227.56
305.93	41275.1
305.996	41310.97
306.062	41357.14
306.128	41394.96
306.194	41402.88
306.259	41443.81
306.325	41456.25
306.391	41538.06
306.457	41615.63
306.523	41688.94
306.589	41815.48
306.655	41840.27
306.721	41813.19
306.787	41820.09
306.853	41893.89
306.919	41882.42
306.985	41901.09
307.051	41933.12
307.117	41960.25
307.183	41965.06
307.248	41924.65
307.314	41966.66
307.38	42016.98
307.446	42076.97
307.512	42085.34
307.578	42130.84
307.644	42150.29
307.709	42182.86
307.775	42215.54
307.841	42237.37
307.907	42256.72
307.973	42230.36
308.039	42282.83
308.104	42344.77
308.17	42384.83
308.236	42386.24
308.302	42442.05
308.368	42439.23
308.433	42470.15
308.499	42487.8
308.565	42489.31
308.631	42531.03
308.696	42525
308.762	42518.34
308.828	42547.71
308.894	42532.2
308.959	42513.39
309.025	42536.92
309.091	42556.42
309.156	42566.05
309.222	42622.22
309.288	42628.93
309.354	42595.23
309.419	42612.99
309.485	42597.08
309.551	42662.2
309.616	42669.59
309.682	42703.09
309.748	42727.26
309.813	42744.52
309.879	42759.35
309.945	42770.2
310.01	42788.24
310.076	42814.98
310.141	42846.25
310.207	42832.1
310.273	42888.21
310.338	42931.73
310.404	42917.48
310.469	42927.21
310.535	42915.73
310.601	42864.67
310.666	42914.08
310.732	42994.51
310.797	42978.36
310.863	42974.42
310.928	42977.68
310.994	43010.75
311.059	43033.61
311.125	43067.6
311.191	43145.87
311.256	43156.96
311.322	43222.91
311.387	43200.63
311.453	44128.96
311.518	44141.99
311.584	44182.61
311.649	44232.56
311.715	44250.85
311.78	44290.14
311.846	44297.19
311.911	44372.77
311.976	44427.39
312.042	44417.76
312.107	44394.46
312.173	44425.1
312.238	44465.27
312.304	44492.66
312.369	44500.78
312.434	44507.84
312.5	44505.89
312.565	44433.21
312.631	44469.98
312.696	44469.11
312.761	44504.71
312.827	43630.08
312.892	43730.07
312.958	43756.73
313.023	43782.81
313.088	43807.32
313.154	43814.62
313.219	43819.29
313.284	43819.09
313.35	43841.76
313.415	43835.68
313.48	43856.31
313.546	43896.83
313.611	43958.23
313.676	43969.81
313.741	43980.12
313.807	44025.46
313.872	44077.22
313.937	44143.38
314.003	44216.6
314.068	44255.77
314.133	44316.34
314.198	44318.09
314.264	44269.96
314.329	44268.35
314.394	44282.37
314.459	44299.93
314.525	44367.02
314.59	44406.42
314.655	44402.48
314.72	44440.77
314.785	44486.7
314.851	44517.93
314.916	44483.53
314.981	44454.39
315.046	44449.71
315.111	44462.17
315.176	44461.97
315.242	44499.64
315.307	44522.36
315.372	44493.75
315.437	44485.48
315.502	44493.99
315.567	44559.88
315.632	44554.04
315.698	44595.75
315.763	44595.46
315.828	44607.04
315.893	44627.77
315.958	44631.71
316.023	44629.96
316.088	44593.37
316.153	44543.6
316.218	44528.57
316.283	44491.31
316.348	44439.46
316.413	44443.26
316.479	44397.1
316.544	44284.4
316.609	44178.2
316.674	44053.43
316.739	43926.63
316.804	43825.03
316.869	43696.9
316.934	43564.38
316.999	43449.79
317.064	43251.94
317.129	43099.23
317.194	42944.34
317.259	42757.43
317.324	42558.04
317.389	42379.06
317.454	42216.75
317.518	42068.82
317.583	41947.69
317.648	41834.76
317.713	41688.78
317.778	41450.61
317.843	41318.29
317.908	41159.75
317.973	40998.43
318.038	40856.8
318.103	40686.93
318.168	40524.22
318.233	40359.23
318.297	40133.99
318.362	39968.87
318.427	39792.19
318.492	39654.38
318.557	39454.43
318.622	39313.39
318.687	39186.41
318.751	38997.15
318.816	38832.47
318.881	38666.51
318.946	38429.52
319.011	38212.57
319.075	38008.14
319.14	37828.06
319.205	37610.21
319.27	37434.37
319.335	37214.26
319.399	37004.24
319.464	36851.39
319.529	36603.3
319.594	36405.74
319.658	36226.28
319.723	36000.91
319.788	35830.85
319.853	35573.42
319.917	35383.14
319.982	35123.43
320.047	34914.73
320.112	34744.35
320.176	34477.24
320.241	34268.13
320.306	34067.28
320.37	33852.56
320.435	33670.04
320.5	33478.72
320.564	33253.59
320.629	33011.31
320.694	32816.24
320.758	32574.98
320.823	32332.54
320.888	32164.67
320.952	31904.88
321.017	31671.36
321.082	31449.11
321.146	31227.78
321.211	31023.87
321.275	30803.23
321.34	30552.54
321.405	30300.85
321.469	30052.49
321.534	29832.82
321.598	29567.66
321.663	29372.29
321.727	29162.73
321.792	28915.47
321.857	28680.03
321.921	28455.05
321.986	28224.94
322.05	27932.52
322.115	27729.53
322.179	27476.34
322.244	27182.42
322.308	26970.76
322.373	26720.94
322.437	26473.18
322.502	26292.75
322.566	26035.59
322.631	25805.28
322.695	25585.64
322.76	25342.03
322.824	25120.41
322.889	24870.99
322.953	24630.99
323.018	24304.72
323.082	23995.47
323.146	23708.88
323.211	23424.75
323.275	23165.9
323.34	22910.78
323.404	22694.03
323.468	22429.2
323.533	22177.88
323.597	21924.48
323.662	21649.16
323.726	21415.66
323.79	21164.53
323.855	20828.4
323.919	20553.52
323.983	20301.68
324.048	19907.38
324.112	20064.84
324.177	19257.65
324.241	18213.57
324.305	17175.35
324.37	16166.04
324.434	15177.22
324.498	14905.19
324.562	14600.73
324.627	14255.37
324.691	13910.86
324.755	13526.58
324.82	13085.87
324.884	12629.05
324.948	12164.76
325.012	11590.88
325.077	10897.19
