Data from 20250701_urea_2M_exp3_MAYP1162681_09-49-51-637.txt Node
Date: Wed Jul 02 09:49:51 BST 2025
User: adleo
Spectrometer: MAYP116268
Trigger mode: 0
Integration Time (sec): 4.000000E0
Scans to average: 1
Electric dark correction enabled: true
Nonlinearity correction enabled: true
Boxcar width: 10
XAxis mode: Wavelengths
Number of Pixels in Spectrum: 2068
>>>>>Begin Spectral Data<<<<<
179.565	3840.76
179.642	4037.37
179.718	4188.69
179.795	4329.34
179.871	4447.47
179.948	4514.64
180.024	4587.95
180.101	4668
180.177	4718.09
180.254	4799.1
180.33	4875.84
180.407	5155.1
180.483	5452.98
180.56	5756.72
180.636	6033.66
180.712	5989.29
180.789	6024.13
180.865	6068.63
180.942	6099.48
181.018	6138.44
181.095	6189.97
181.171	6208.25
181.248	6214.83
181.324	6271.25
181.4	6293.38
181.477	6330.01
181.553	6375.11
181.63	6447.37
181.706	6508.69
181.782	6537.91
181.859	6535.75
181.935	6553.08
182.011	6540.31
182.088	6597.79
182.164	6669.59
182.24	6721.86
182.317	6751.29
182.393	6743.65
182.469	6785.19
182.546	6829.47
182.622	6846.62
182.698	6829.76
182.775	6869.24
182.851	6914.44
182.927	6891.09
183.003	6876.93
183.08	6860.07
183.156	6893.26
183.232	6884.8
183.308	6838.12
183.385	6864.76
183.461	6927.46
183.537	6933.46
183.613	6978.52
183.69	6950.18
183.766	6907.44
183.842	6927.53
183.918	6947.27
183.995	6994.35
184.071	7006.6
184.147	6992.96
184.223	6954.84
184.299	6998.28
184.375	6961.58
184.452	6986.24
184.528	7117.55
184.604	7156.99
184.68	7196.23
184.756	7216.81
184.832	7233.58
184.908	7251.15
184.985	7253.84
185.061	7197.49
185.137	7230.5
185.213	7188.42
185.289	7194.52
185.365	7168.73
185.441	7162.43
185.517	7209.02
185.593	7197.58
185.669	7189.99
185.745	7220.07
185.822	7273.09
185.898	7245.98
185.974	7277.68
186.05	7246.67
186.126	7169.04
186.202	7147.71
186.278	7132.34
186.354	7097.45
186.43	7122.35
186.506	7120.38
186.582	7117.07
186.658	7141.37
186.734	7069.08
186.81	7081.57
186.886	7087.14
186.962	7127.35
187.038	7113.41
187.114	7087.2
187.19	7112.2
187.266	7085.63
187.341	7089.91
187.417	7068.44
187.493	7066.75
187.569	7073.77
187.645	7059.31
187.721	7015.14
187.797	7036.76
187.873	7056.6
187.949	7042.1
188.025	7014.07
188.101	7019.78
188.176	7039.05
188.252	7022.14
188.328	7050.56
188.404	7048.45
188.48	7033.56
188.556	7013.18
188.632	7016.83
188.707	7018.56
188.783	7007.89
188.859	6986.29
188.935	6948.56
189.011	6971.1
189.086	6945.01
189.162	6919.36
189.238	6911
189.314	6907.3
189.39	6890.29
189.465	6866.17
189.541	6919.41
189.617	6866.77
189.693	6850.39
189.768	6861.54
189.844	6949.42
189.92	6923.59
189.996	6949.63
190.071	6990.33
190.147	6986.39
190.223	7018.35
190.298	6992.45
190.374	6945.22
190.45	6989.16
190.526	7022.42
190.601	7004.93
190.677	7010.31
190.753	7103.16
190.828	7113
190.904	7166.45
190.98	7222.45
191.055	7257.1
191.131	7234.37
191.207	7302.3
191.282	7336.4
191.358	7304.93
191.433	7250.15
191.509	7297.65
191.585	7287.89
191.66	7286.93
191.736	7317.63
191.811	7284.81
191.887	7337.89
191.963	7419.78
192.038	7440.79
192.114	7437.71
192.189	7461.01
192.265	7455.83
192.34	7384.79
192.416	7380.85
192.491	7359.16
192.567	7367.82
192.642	7373.4
192.718	7371.09
192.793	7335.57
192.869	7322.22
192.944	7327.84
193.02	7353.46
193.095	7370.57
193.171	7391
193.246	7389.75
193.322	7379.27
193.397	7382.78
193.473	7336.04
193.548	7274.56
193.624	7289.08
193.699	7287.92
193.775	7332.65
193.85	7336.15
193.925	7367.84
194.001	7368.94
194.076	7345.78
194.152	7304.61
194.227	7277.74
194.302	7242.25
194.378	7250.8
194.453	7242.2
194.529	7285.99
194.604	7236.87
194.679	7209.04
194.755	7146.26
194.83	7189.16
194.905	7178.25
194.981	7207.24
195.056	7180.14
195.131	7201.48
195.207	7196.48
195.282	7162.65
195.357	7096.45
195.433	7148.06
195.508	7104.31
195.583	7128.15
195.659	7177.9
195.734	7204.39
195.809	7204.63
195.884	7238.74
195.96	7244.6
196.035	7300.21
196.11	7288.76
196.185	7327.64
196.261	7341.91
196.336	7449.57
196.411	7400.13
196.486	7421.9
196.561	7395.08
196.637	7431.02
196.712	7484.21
196.787	7491.52
196.862	7541.79
196.937	7581.05
197.013	7604.57
197.088	7640
197.163	7712.01
197.238	7774.14
197.313	7769.57
197.388	7815.49
197.464	7918.1
197.539	7955.7
197.614	7927.68
197.689	7969.57
197.764	8029.71
197.839	8097.71
197.914	8079
197.989	8155.48
198.065	8197.18
198.14	8378.6
198.215	8468.28
198.29	8513.33
198.365	8561.35
198.44	8596.57
198.515	8690.9
198.59	8739.22
198.665	8828.54
198.74	8858.05
198.815	8859.07
198.89	8938.13
198.965	9037.85
199.04	9025.95
199.115	9084.09
199.19	9232.24
199.265	9237.53
199.34	9267.77
199.415	9386.35
199.49	9451.61
199.565	9480.31
199.64	9565.68
199.715	9546.74
199.79	9567.69
199.865	9587.87
199.94	9580.93
200.015	9689.97
200.09	9713.72
200.165	9733.46
200.24	9755.95
200.315	9887.06
200.39	9934.12
200.464	9959.89
200.539	9973.57
200.614	10029.05
200.689	10103.38
200.764	10127.09
200.839	10191.32
200.914	10213.04
200.989	10176.75
201.063	10235.14
201.138	10180.55
201.213	10181.37
201.288	10122.6
201.363	10139.37
201.438	10141.39
201.512	10194.98
201.587	10140.59
201.662	10148.25
201.737	10194.11
201.812	10224.85
201.886	10118.88
201.961	10154.34
202.036	10107.68
202.111	10092.65
202.186	9990.3
202.26	9931.14
202.335	9852.14
202.41	9831.14
202.485	9770.76
202.559	9703.04
202.634	9609.32
202.709	9642.87
202.784	9580.99
202.858	9575.93
202.933	9511.17
203.008	9481.55
203.082	9415.35
203.157	9406.63
203.232	9257.43
203.306	9178.5
203.381	9061.53
203.456	8979.45
203.53	8897.11
203.605	8833.36
203.68	8747.13
203.754	8726.98
203.829	8672.53
203.904	8609.34
203.978	8568.71
204.053	8579.64
204.127	8534.36
204.202	8525.07
204.277	8459.24
204.351	8431.09
204.426	8405.68
204.5	8381.66
204.575	8266.04
204.65	8305.18
204.724	8273.93
204.799	8303.45
204.873	8289.73
204.948	8281.84
205.022	8239.47
205.097	8211.02
205.171	8255.85
205.246	8284.73
205.32	8276.08
205.395	8273.38
205.469	8242.28
205.544	8258.02
205.618	8203.02
205.693	8242.82
205.767	8199.62
205.842	8274.64
205.916	8251.31
205.991	8219.89
206.065	8239.43
206.14	8289.89
206.214	8265.97
206.289	8247.58
206.363	8291.8
206.438	8302.44
206.512	8334.1
206.586	8409.48
206.661	8438.37
206.735	8359.41
206.81	8362.59
206.884	8419.3
206.958	8378.03
207.033	8434.34
207.107	8461.26
207.181	8567.92
207.256	8541.65
207.33	8607.51
207.405	8643.73
207.479	8713.56
207.553	8742.37
207.628	8682.21
207.702	8729.74
207.776	8709.63
207.851	8718.48
207.925	8771.83
207.999	8760.28
208.073	8753.93
208.148	8751.96
208.222	8707.14
208.296	8820.71
208.371	8878.46
208.445	8918.7
208.519	9016.05
208.593	9055.86
208.668	9039.01
208.742	9045.99
208.816	9054.61
208.89	9104.64
208.965	9105.31
209.039	9130.93
209.113	9184.76
209.187	9257.97
209.261	9238.43
209.336	9307.13
209.41	9377.39
209.484	9372.19
209.558	9447.5
209.632	9492.46
209.707	9534.64
209.781	9614.24
209.855	9670.25
209.929	9726.59
210.003	9745.47
210.077	9746.62
210.151	9914.65
210.226	10034.95
210.3	10131.18
210.374	10218.43
210.448	10230.77
210.522	10265.89
210.596	10306.55
210.67	10339.98
210.744	10500.41
210.818	10618.94
210.892	10689.71
210.966	10671.89
211.041	10726.14
211.115	10713.81
211.189	10792.34
211.263	10849.67
211.337	10870.63
211.411	10915.16
211.485	10892.55
211.559	10926.28
211.633	10930.71
211.707	10816.53
211.781	10842.56
211.855	10712.65
211.929	10675.23
212.003	10609.25
212.077	10640.29
212.151	10680.62
212.225	10708.76
212.299	10665.62
212.373	10622.16
212.447	10600.48
212.52	10702.24
212.594	10712.17
212.668	10752.02
212.742	10700.65
212.816	10676.12
212.89	10650.4
212.964	10641.87
213.038	10650.59
213.112	10692.85
213.186	10743.34
213.26	10664.89
213.333	10499.6
213.407	10515.44
213.481	10518.57
213.555	10554.01
213.629	10503.7
213.703	10432.73
213.777	10424.97
213.85	10353.51
213.924	10456.78
213.998	10454.57
214.072	10410.9
214.146	10352.27
214.219	10330.29
214.293	10306.21
214.367	10298.7
214.441	10322.16
214.515	10273.15
214.588	10172.33
214.662	10035.29
214.736	9950.04
214.81	9962.6
214.883	9982.39
214.957	9929.09
215.031	9870.98
215.105	9775.69
215.178	9710.53
215.252	9672.05
215.326	9559.31
215.4	9472.86
215.473	9282.11
215.547	9191.75
215.621	9123.92
215.694	9112.6
215.768	9006.44
215.842	8938.19
215.915	8865.66
215.989	8751.88
216.063	8681.67
216.136	8664.54
216.21	8641.49
216.284	8649.58
216.357	8626.04
216.431	8575.17
216.504	8571.66
216.578	8628.41
216.652	8637.79
216.725	8611.7
216.799	8613.58
216.873	8603.14
216.946	8607.76
217.02	8567.8
217.093	8532.28
217.167	8428.16
217.24	8342.48
217.314	8310.12
217.387	8263.72
217.461	8216.14
217.535	8238.65
217.608	8179.2
217.682	8148.84
217.755	8159.85
217.829	8100.42
217.902	8079.4
217.976	8064.54
218.049	8016.1
218.123	7936.97
218.196	7935.91
218.27	7896.42
218.343	7823.43
218.417	7816.93
218.49	7794.09
218.563	7835.83
218.637	7841.89
218.71	7921.75
218.784	7954.41
218.857	7988.31
218.931	8010.23
219.004	8021.54
219.077	8042.72
219.151	8059.74
219.224	8051.9
219.298	8042.42
219.371	8090.2
219.444	8049.04
219.518	8056.83
219.591	8073.28
219.665	8182.46
219.738	8194.43
219.811	8179.24
219.885	8225.52
219.958	8256.13
220.031	8262.57
220.105	8280.9
220.178	8288.22
220.251	8264.34
220.325	8284.94
220.398	8303.18
220.471	8329.15
220.544	8361.82
220.618	8331.93
220.691	8360.51
220.764	8382.93
220.838	8419.55
220.911	8404.48
220.984	8491.07
221.057	8531.63
221.131	8559.1
221.204	8459.59
221.277	8534.73
221.35	8663.85
221.424	8661.44
221.497	8671.79
221.57	8688.91
221.643	8729.69
221.716	8778.79
221.79	8776.14
221.863	8789.19
221.936	8797.71
222.009	8814.74
222.082	8849.55
222.155	8861.05
222.229	8927.25
222.302	8950.55
222.375	8954.25
222.448	8995.03
222.521	9006.49
222.594	9006.49
222.667	8978.92
222.74	9034.99
222.814	9023.53
222.887	9005.46
222.96	9054.28
223.033	9094.83
223.106	9125.82
223.179	9157.7
223.252	9164.93
223.325	9199.29
223.398	9210.85
223.471	9243.11
223.544	9258.56
223.617	9269.3
223.69	9290.91
223.763	9254.74
223.837	9284.74
223.91	9309.59
223.983	9250.81
224.056	9210.57
224.129	9228.63
224.202	9284.64
224.275	9275.39
224.348	9251.03
224.42	9214.49
224.493	9157.05
224.566	9136.49
224.639	9159.6
224.712	9127.33
224.785	9116.59
224.858	9105.18
224.931	9081.87
225.004	9038.36
225.077	9037.3
225.15	8946.05
225.223	8942.34
225.296	9027.6
225.369	8962.28
225.442	8932.96
225.514	8954.85
225.587	8974.82
225.66	8985.27
225.733	8985.03
225.806	8993.65
225.879	8981.86
225.952	8950.29
226.025	8997.27
226.097	9048.96
226.17	9038.94
226.243	8965.55
226.316	8957.6
226.389	8961.89
226.461	8989.57
226.534	9012.39
226.607	9001.51
226.68	9088.43
226.753	9085.54
226.825	8998.59
226.898	9066.13
226.971	9066.95
227.044	9092.07
227.117	9103.05
227.189	9124.92
227.262	9163.54
227.335	9182.12
227.407	9176.59
227.48	9207.15
227.553	9222.41
227.626	9197.8
227.698	9199.82
227.771	9244.62
227.844	9225.84
227.916	9243.85
227.989	9208.8
228.062	9199.22
228.134	9290.14
228.207	9282.82
228.28	9276.8
228.352	9292.74
228.425	9290.76
228.498	9341.62
228.57	9320.72
228.643	9379.24
228.716	9374.86
228.788	9360.46
228.861	9363.83
228.934	9433.21
229.006	9448.81
229.079	9444.33
229.151	9435.47
229.224	9400.52
229.296	9433.12
229.369	9542.27
229.442	9596.31
229.514	9578.89
229.587	9628.73
229.659	9551.23
229.732	9568.04
229.804	9608.53
229.877	9689.03
229.949	9724.44
230.022	9775.37
230.094	9777.29
230.167	9763.18
230.239	9715.94
230.312	9703.9
230.384	9764.22
230.457	9757.57
230.529	9762.44
230.602	9769.8
230.674	9777.08
230.747	9824.97
230.819	9856.23
230.892	9727.83
230.964	9724.27
231.037	9749.73
231.109	9740.34
231.181	9783.58
231.254	9749.77
231.326	9734.22
231.399	9703.14
231.471	9669.85
231.544	9586.18
231.616	9630.81
231.688	9641.27
231.761	9628.99
231.833	9614.84
231.905	9525.48
231.978	9525
232.05	9514.94
232.122	9518.41
232.195	9493.7
232.267	9525.53
232.339	9496.92
232.412	9568.76
232.484	9545.44
232.556	9521.9
232.629	9596.68
232.701	9614.16
232.773	9621.53
232.846	9611.18
232.918	9621.63
232.99	9643.4
233.062	9689.69
233.135	9701.59
233.207	9661.17
233.279	9710.66
233.351	9750.73
233.424	9753.67
233.496	9731.85
233.568	9817.06
233.64	9781.23
233.713	9800.35
233.785	9806.57
233.857	9824.1
233.929	9775.46
234.001	9842.29
234.074	9904.59
234.146	9826.11
234.218	9821.68
234.29	9825.92
234.362	9818.22
234.434	9764.94
234.507	9728.1
234.579	9671.12
234.651	9650.51
234.723	9683.16
234.795	9697.51
234.867	9686.72
234.939	9742.21
235.012	9755.84
235.084	9755.89
235.156	9793.01
235.228	9772.21
235.3	9752.99
235.372	9762.19
235.444	9822.39
235.516	9741.16
235.588	9752.81
235.66	9775.11
235.732	9752.19
235.804	9951.69
235.876	9995.23
235.948	10058.77
236.02	10076.25
236.092	10092.81
236.164	10104.23
236.236	10097.77
236.308	10098.16
236.38	10131.1
236.452	10119.59
236.524	10142.08
236.596	10203.44
236.668	10234.08
236.74	10258.26
236.812	10286.24
236.884	10319.44
236.956	10329.27
237.028	10321.71
237.1	10305.23
237.172	10369.65
237.244	10440.81
237.316	10316.7
237.388	10303.4
237.46	10288.42
237.532	10352.64
237.604	10348.54
237.675	10429.25
237.747	10483.6
237.819	10475.07
237.891	10472.76
237.963	10465
238.035	10458.45
238.107	10349.02
238.178	10414.85
238.25	10429.83
238.322	10522.12
238.394	10474.71
238.466	10479.48
238.538	10527.94
238.609	10571.3
238.681	10519.35
238.753	10497.38
238.825	10525.81
238.897	10557.03
238.968	10642.72
239.04	10623.97
239.112	10741.25
239.184	10703.8
239.255	10702.74
239.327	10741.57
239.399	10770.53
239.471	10818.85
239.542	10860.62
239.614	10933.43
239.686	10849.96
239.758	10900.75
239.829	10864.98
239.901	10933.69
239.973	10945.4
240.044	10976.24
240.116	10986.79
240.188	10998.69
240.259	11017.34
240.331	11003.66
240.403	11037.72
240.474	10985.43
240.546	10973.62
240.618	10910.54
240.689	10901.87
240.761	10920.42
240.833	10986.64
240.904	10981.14
240.976	10982.01
241.048	10997.24
241.119	11030.5
241.191	11080.46
241.262	11147.56
241.334	11149.34
241.405	11156.72
241.477	11164.18
241.549	11170.84
241.62	11198.06
241.692	11248.57
241.763	11313.68
241.835	11334.22
241.906	11352.19
241.978	11324.43
242.049	11393.92
242.121	11458.98
242.192	11538.07
242.264	11498.55
242.335	11446.5
242.407	11494.02
242.478	11501.35
242.55	11523.47
242.621	11507.56
242.693	11503.51
242.764	11492.09
242.836	11494.69
242.907	11522.75
242.979	11551.18
243.05	11574.07
243.122	11600.82
243.193	11594.7
243.264	11515.37
243.336	11514.07
243.407	11555.38
243.479	11636.34
243.55	11656.64
243.622	11667.15
243.693	11659.14
243.764	11727.87
243.836	11708.31
243.907	11701.32
243.978	11707.05
244.05	11729.37
244.121	11686.77
244.192	11736.89
244.264	11684.79
244.335	11699.2
244.407	11644.64
244.478	11667.15
244.549	11660.5
244.62	11616.49
244.692	11616.88
244.763	11664.93
244.834	11660.88
244.906	11635.67
244.977	11651.63
245.048	11698.48
245.119	11682
245.191	11655.54
245.262	11595.77
245.333	11683.05
245.405	11704.07
245.476	11735.83
245.547	11751.3
245.618	11800.99
245.689	11808.95
245.761	11849.29
245.832	11861.39
245.903	11919.37
245.974	11940.67
246.045	11957.64
246.117	12040.25
246.188	12026.86
246.259	12007.29
246.33	12028.5
246.401	12040.84
246.473	12007
246.544	11993.16
246.615	12050.52
246.686	12059.39
246.757	12140.36
246.828	12109.9
246.899	12180.76
246.97	12142.49
247.042	12134.01
247.113	12177.25
247.184	12269.61
247.255	12267.06
247.326	12293.38
247.397	12295.74
247.468	12304.66
247.539	12312.37
247.61	12272.31
247.681	12325.33
247.752	12385.39
247.823	12358.59
247.894	12373.48
247.965	12347.79
248.037	12334.63
248.108	12274.62
248.179	12288.41
248.25	12278.91
248.321	12306.43
248.392	12259.82
248.463	12345.42
248.534	12342.34
248.605	12369.52
248.675	12341.08
248.746	12356.17
248.817	12369.23
248.888	12391.46
248.959	12339.45
249.03	12368.61
249.101	12379.26
249.172	12362.83
249.243	12289.32
249.314	12354.15
249.385	12359.84
249.456	12391.75
249.527	12394.16
249.598	12421.1
249.669	12408.52
249.739	12426.99
249.81	12445.11
249.881	12397.2
249.952	12388.33
250.023	12387.03
250.094	12330.24
250.165	12301.8
250.235	12301.61
250.306	12304.02
250.377	12267.29
250.448	12297.51
250.519	12228.19
250.59	12288.98
250.66	12285.8
250.731	12356.99
250.802	12356.84
250.873	12383.41
250.944	12406.83
251.014	12391.89
251.085	12487.19
251.156	12525.85
251.227	12576.85
251.297	12632.72
251.368	12685.31
251.439	12729.03
251.51	12788.13
251.58	12769.19
251.651	12762.83
251.722	12819.08
251.792	12769.48
251.863	12775.6
251.934	12840.05
252.005	12954.78
252.075	12958.2
252.146	13008.38
252.217	13056.88
252.287	13097.61
252.358	13093.85
252.429	13174.02
252.499	13170.69
252.57	13178.07
252.641	13225.07
252.711	13232.44
252.782	13175.99
252.852	13255.15
252.923	13253.41
252.994	13264.07
253.064	13324.32
253.135	13305.04
253.205	13282.09
253.276	13360.72
253.347	13431.48
253.417	13406.8
253.488	13391.61
253.558	13375.46
253.629	13380.86
253.699	13396.63
253.77	13429.94
253.841	13430.47
253.911	13438.37
253.982	13455.87
254.052	13484.75
254.123	13495.54
254.193	13498.29
254.264	13647.25
254.334	13611.28
254.405	13579.13
254.475	13551.12
254.546	13551.99
254.616	13612.78
254.687	13641.61
254.757	13664.74
254.827	13662
254.898	13686.53
254.968	13694.39
255.039	13677.95
255.109	13708.76
255.18	13676.94
255.25	13597.69
255.321	13631.14
255.391	13580.58
255.461	13667.4
255.532	13578.5
255.602	13567.32
255.673	13510.97
255.743	13471.54
255.813	13402.6
255.884	13451.05
255.954	13476.89
256.024	13547.95
256.095	13549.92
256.165	13519.5
256.235	13538.64
256.306	13522.64
256.376	13569.59
256.446	13607.87
256.517	13644.6
256.587	13690.44
256.657	13712.96
256.728	13740.53
256.798	13752.05
256.868	13749.21
256.938	13715.99
257.009	13770.18
257.079	13801.66
257.149	13898.74
257.219	13830.72
257.29	13872.32
257.36	13821.56
257.43	13868.95
257.5	13798.95
257.571	13790.71
257.641	13822.38
257.711	13786.9
257.781	13818.86
257.852	13832.7
257.922	13769.89
257.992	13776.35
258.062	13768.3
258.132	13810.28
258.202	13819.63
258.273	13831.25
258.343	13911.61
258.413	13902.69
258.483	13906.55
258.553	13878.98
258.623	13848.99
258.693	13885.15
258.764	13958.76
258.834	14028.03
258.904	14043.7
258.974	14029.91
259.044	14044.37
259.114	14074.45
259.184	14100.1
259.254	14113.55
259.324	14064.57
259.394	14120.3
259.464	14191.16
259.535	14202.87
259.605	14200.99
259.675	14185.57
259.745	14225.62
259.815	14197.71
259.885	14204.61
259.955	14323.81
260.025	14308.38
260.095	14326.36
260.165	14353.74
260.235	14404.45
260.305	14380.64
260.375	14350.41
260.445	14449.28
260.515	14516.72
260.585	14569.17
260.655	14581.99
260.725	14624.8
260.795	14662.3
260.865	14729.11
260.934	14706.26
261.004	14735.91
261.074	14742.8
261.144	14808.5
261.214	14837.28
261.284	14837.62
261.354	14872.23
261.424	14816.95
261.494	14901.26
261.564	14903
261.634	14936.35
261.703	14869.45
261.773	14901.55
261.843	14929.7
261.913	14918.86
261.983	14859.28
262.053	14879.86
262.123	14873.16
262.192	14825.63
262.262	14861.78
262.332	14809.19
262.402	14841.15
262.472	14849.44
262.541	14783.88
262.611	14827.36
262.681	14802.53
262.751	14847.65
262.821	14852.86
262.89	14822.93
262.96	14838.5
263.03	14926.41
263.1	14954.32
263.169	14981.27
263.239	15018.53
263.309	15093.19
263.379	15130.21
263.448	15146.65
263.518	15161.64
263.588	15183.14
263.657	15258.53
263.727	15304.47
263.797	15316.95
263.867	15306.88
263.936	15263.69
264.006	15329.44
264.076	15322.02
264.145	15317.44
264.215	15298.93
264.285	15339.18
264.354	15302.88
264.424	15284.71
264.494	15229.66
264.563	15212.5
264.633	15286.39
264.702	15304.08
264.772	15243.45
264.842	15241.43
264.911	15280.28
264.981	15244.03
265.05	15255.99
265.12	15251.79
265.19	15256.42
265.259	15307.99
265.329	15345.74
265.398	15373.98
265.468	15474.24
265.537	15468.45
265.607	15510.15
265.676	15563.27
265.746	15584.57
265.815	15642.99
265.885	15662.76
265.955	15649.55
266.024	15645.89
266.094	15588.67
266.163	15648.15
266.232	15720.01
266.302	15723.92
266.371	15751.68
266.441	15774.58
266.51	15816.75
266.58	15827.79
266.649	15818.97
266.719	15864.08
266.788	15890.3
266.858	15964
266.927	15885.48
266.996	15923.22
267.066	15952.67
267.135	15916.81
267.205	15962.84
267.274	15982.12
267.343	16034.32
267.413	16053.99
267.482	16117.99
267.552	16184.65
267.621	16134.63
267.69	16083.97
267.76	16113.66
267.829	16130.67
267.898	16146.68
267.968	16136.94
268.037	16171.74
268.106	16217.48
268.176	16191.93
268.245	16203.55
268.314	16194.97
268.384	16267.75
268.453	16286.02
268.522	16312.38
268.592	16385.16
268.661	16368.87
268.73	16395.19
268.799	16384.53
268.869	16463.87
268.938	16423.67
269.007	16405.07
269.076	16431.82
269.146	16487.97
269.215	16516.74
269.284	16597.13
269.353	16599.54
269.422	16602.14
269.492	16597.32
269.561	16512.98
269.63	16544.35
269.699	16541.22
269.768	16561.9
269.838	16579.58
269.907	16621.32
269.976	16595.25
270.045	16526.18
270.114	16568.25
270.183	16580.88
270.253	16621.03
270.322	16576.25
270.391	16600.01
270.46	16673.99
270.529	16729.13
270.598	16767.59
270.667	16771.78
270.736	16736.89
270.806	16770.96
270.875	16837.04
270.944	16852.03
271.013	16988.08
271.082	17016.86
271.151	17062.11
271.22	17018.15
271.289	17023.46
271.358	17026.93
271.427	17051.79
271.496	17091.17
271.565	17086.84
271.634	17103.9
271.703	17225
271.772	17290.4
271.841	17297.34
271.91	17265.15
271.979	17278.35
272.048	17260.57
272.117	17309.39
272.186	17318.55
272.255	17370.59
272.324	17413.87
272.393	17453.68
272.462	17446.35
272.531	17464.72
272.6	17465.29
272.669	17548.67
272.738	17574.26
272.807	17611.22
272.876	17605.87
272.945	17747.46
273.013	17807.17
273.082	17880.57
273.151	17788.67
273.22	17823.61
273.289	17860.04
273.358	17946.5
273.427	17961.25
273.496	18012.18
273.564	18050.35
273.633	18106.01
273.702	18088.47
273.771	18102.25
273.84	18129.91
273.909	18169.24
273.977	18207.79
274.046	18225.04
274.115	18269.52
274.184	18257.67
274.253	18282.92
274.322	18363.93
274.39	18304.7
274.459	18298.58
274.528	18251.41
274.597	18265.77
274.665	18289.57
274.734	18365.33
274.803	18373.52
274.872	18397.28
274.94	18384.65
275.009	18614.61
275.078	18607.09
275.147	18641.98
275.215	18666.85
275.284	18737.16
275.353	18743.95
275.421	18715.52
275.49	18816.24
275.559	18838.21
275.627	18868.29
275.696	18867.18
275.765	18910.5
275.833	18925.2
275.902	18969.97
275.971	19050.3
276.039	19146.82
276.108	19210.05
276.177	19234.19
276.245	19240.65
276.314	19265.61
276.383	19333.27
276.451	19159.12
276.52	19214.34
276.588	19307.2
276.657	19364.16
276.725	19367.01
276.794	19411.49
276.863	19490.23
276.931	19450.28
277	19518.52
277.068	19597.21
277.137	19724.73
277.205	19755.23
277.274	19860.43
277.342	19937.83
277.411	19917.78
277.48	19918.6
277.548	19926.55
277.617	19968.05
277.685	19997.92
277.754	20064.72
277.822	20090.45
277.89	20182.02
277.959	20206.16
278.027	20180.14
278.096	20188.96
278.164	20328.44
278.233	20347.96
278.301	20357.69
278.37	20421.36
278.438	20413.79
278.507	20465.55
278.575	20416.29
278.643	20442.22
278.712	20422.51
278.78	20417.59
278.849	20496.05
278.917	20576.2
278.985	20612.58
279.054	20664.35
279.122	20752.01
279.191	20780.88
279.259	20810.81
279.327	20779.43
279.396	20877.18
279.464	20917.8
279.532	20987.59
279.601	21012.42
279.669	21046.83
279.737	21143.51
279.806	21204.29
279.874	21275.24
279.942	21310.52
280.011	21341.46
280.079	21417.37
280.147	21518.69
280.215	21581.78
280.284	21614.07
280.352	21613.16
280.42	21674.23
280.488	21689.02
280.557	21701.46
280.625	21765.76
280.693	21811.98
280.761	21872
280.83	21863.85
280.898	21945.55
280.966	21925.5
281.034	21858.68
281.102	21857.91
281.171	21869.91
281.239	21944.07
281.307	21963.73
281.375	21961.95
281.443	22096.26
281.512	22122.2
281.58	22184.97
281.648	22172.73
281.716	22218.95
281.784	22259.88
281.852	22284.37
281.92	22325.3
281.989	22405.24
282.057	22376.36
282.125	22565.8
282.193	22602.73
282.261	22640.86
282.329	22668.92
282.397	22724.65
282.465	22783.03
282.533	22879.92
282.601	22893.9
282.67	22853.93
282.738	22870.37
282.806	22968.24
282.874	22957.19
282.942	23007.01
283.01	23028.71
283.078	23096.88
283.146	23135.21
283.214	23211.4
283.282	23258.94
283.35	23354.1
283.418	23378.69
283.486	23457.04
283.554	23358.77
283.622	23398.22
283.69	23441.52
283.758	23473.15
283.826	23535.84
283.894	23618.69
283.962	23725.25
284.03	23831.45
284.098	23896.93
284.165	23932.28
284.233	23965.32
284.301	23993.53
284.369	24021.02
284.437	24037.9
284.505	24074.65
284.573	24165.43
284.641	24163.4
284.709	24234.03
284.777	24210.2
284.845	24280.49
284.912	24341.66
284.98	24403.98
285.048	24429.25
285.116	24494.14
285.184	24586.14
285.252	24642.53
285.319	24630.91
285.387	24650.02
285.455	24636.95
285.523	24701.69
285.591	24735.21
285.659	24791.42
285.726	24891.5
285.794	24889.47
285.862	24932.7
285.93	24972.46
285.997	25003.29
286.065	25054.62
286.133	25070.55
286.201	25111.07
286.269	25108.18
286.336	25122.27
286.404	25141.47
286.472	25231.96
286.539	25205.28
286.607	25197.8
286.675	25238.58
286.743	25318.54
286.81	25346.05
286.878	25433.75
286.946	25443.3
287.013	25503.32
287.081	25537.21
287.149	25517.66
287.216	25631.46
287.284	25663.7
287.352	25720.7
287.419	25753.67
287.487	25839.02
287.555	25897.53
287.622	25938.6
287.69	25995.42
287.758	26081.74
287.825	26123.15
287.893	26125.28
287.96	26188.83
288.028	26273.9
288.096	26332.86
288.163	26386.07
288.231	26396.99
288.298	26443.45
288.366	26537.85
288.433	26565.94
288.501	26592.64
288.569	26658.07
288.636	26680.96
288.704	26780.21
288.771	26846.61
288.839	26875.83
288.906	26891.14
288.974	26965.3
289.041	27012.14
289.109	27022.95
289.176	27091.9
289.244	27142.8
289.311	27225.01
289.379	27317.01
289.446	27355.66
289.514	27390.01
289.581	27424.84
289.649	27478.55
289.716	27524.41
289.783	27545.33
289.851	27658.94
289.918	27709.61
289.986	27786.1
290.053	27845.34
290.121	27876.08
290.188	27923.83
290.255	28050.94
290.323	28089.2
290.39	28119.76
290.458	28196.43
290.525	28299.46
290.592	28334.27
290.66	28398.49
290.727	28428.7
290.794	28516.15
290.862	28569.57
290.929	28630.62
290.996	28677.5
291.064	28749.86
291.131	28833.91
291.198	28925.39
291.266	28970.4
291.333	29024.68
291.4	29083.53
291.468	29194.78
291.535	29223.98
291.602	29288.98
291.669	29318.05
291.737	29381.77
291.804	29420.8
291.871	29508.19
291.938	29572.67
292.006	29711.18
292.073	29802.78
292.14	29888.16
292.207	29903.2
292.275	29949.59
292.342	30023.22
292.409	30158.46
292.476	30284.29
292.543	30310.8
292.611	30354.5
292.678	30464.31
292.745	30580.77
292.812	30666.49
292.879	30691.08
292.946	30755.81
293.014	30831.17
293.081	30899.32
293.148	30991.21
293.215	31101.29
293.282	31128.68
293.349	31204.74
293.416	31175.05
293.484	31261.82
293.551	31343.31
293.618	31443.55
293.685	31575.31
293.752	31603.68
293.819	31639.91
293.886	31650.57
293.953	31717.09
294.02	31793.51
294.087	31850.72
294.154	31881.76
294.221	31967.42
294.288	32025.39
294.356	32127.76
294.423	32208.91
294.49	32223.63
294.557	32312.52
294.624	32321.1
294.691	32449.46
294.758	32500.82
294.825	32575.66
294.892	32593.83
294.959	32647.32
295.026	32729.99
295.093	32759.31
295.16	32808.08
295.226	32855.38
295.293	32970.49
295.36	33035.66
295.427	33125.86
295.494	33209.2
295.561	33286.48
295.628	33418.85
295.695	33509.93
295.762	33572.9
295.829	33651.35
295.896	33777.65
295.963	33864.15
296.03	33951.24
296.096	34006.28
296.163	34094.47
296.23	34188.19
296.297	34285.44
296.364	34332.37
296.431	34402.34
296.498	34441.86
296.564	34578.14
296.631	34654.17
296.698	34664.64
296.765	34780.26
296.832	34792.73
296.899	34800.58
296.965	34917.82
297.032	34883.22
297.099	34999.38
297.166	35095.81
297.233	35133.07
297.299	35156.98
297.366	35212.78
297.433	35274.72
297.5	35357.54
297.566	35418.92
297.633	35475.83
297.7	35546.37
297.767	35589.98
297.833	35650.93
297.9	35713.89
297.967	35710.25
298.033	35792.7
298.1	35952.37
298.167	35978
298.234	36055.38
298.3	36152.28
298.367	36181.3
298.434	36267.26
298.5	36275.03
298.567	36292.26
298.634	36337.2
298.7	36447.41
298.767	36487.6
298.834	36578.89
298.9	36619.09
298.967	36639.43
299.033	36728.51
299.1	36821.19
299.167	36918.11
299.233	36958.4
299.3	37058.39
299.366	37177.6
299.433	37281.56
299.5	37229.56
299.566	37280.43
299.633	37407.45
299.699	37505.98
299.766	37548.07
299.832	37609.65
299.899	37689.97
299.965	37784.26
300.032	37825.04
300.099	37886.76
300.165	37965.52
300.232	38004.56
300.298	38038.51
300.365	38131.68
300.431	38182.29
300.498	38201.96
300.564	38266.6
300.631	38353.19
300.697	38437.13
300.763	38469.42
300.83	38502.94
300.896	38606.48
300.963	38692.39
301.029	38728.44
301.096	38773.23
301.162	38854.78
301.229	38877.36
301.295	38883.82
301.361	38942.41
301.428	39013.75
301.494	39022.64
301.561	39078.7
301.627	39133.15
301.693	39206.84
301.76	39259.06
301.826	39292.63
301.892	39377.9
301.959	39456.16
302.025	39491.39
302.092	39520.2
302.158	39604.39
302.224	39659.01
302.291	39681.79
302.357	39720.66
302.423	39753.07
302.49	39769.4
302.556	39853.07
302.622	39914.44
302.688	40003.69
302.755	40084.61
302.821	40143.64
302.887	40229.05
302.954	40276.14
303.02	40360.79
303.086	40424.84
303.152	40474.99
303.219	40506.38
303.285	40571.46
303.351	40645.05
303.417	40702.63
303.483	40727.03
303.55	40749.53
303.616	40792.84
303.682	40841.04
303.748	40866.26
303.815	40956.57
303.881	41032.98
303.947	41040.02
304.013	41090.72
304.079	41117.64
304.145	41103.45
304.212	41150.93
304.278	41165.12
304.344	41196.96
304.41	41206.05
304.476	41220.24
304.542	41257.13
304.608	41312.54
304.674	41302.48
304.741	41327.76
304.807	41382.55
304.873	41447.2
304.939	41551.66
305.005	41533.05
305.071	41566.73
305.137	41611.25
305.203	41570.66
305.269	41610.18
305.335	41696.92
305.401	41730.9
305.467	41769.21
305.533	41844.37
305.599	41918.26
305.666	41992.54
305.732	42034.06
305.798	42119.49
305.864	42254.33
305.93	42309.37
305.996	42361.29
306.062	42402.23
306.128	42428.97
306.194	42424.98
306.259	42457.56
306.325	42460.33
306.391	42545.42
306.457	42611
306.523	42670.41
306.589	42786.87
306.655	42801.07
306.721	42782.06
306.787	42778.02
306.853	42864.73
306.919	42855.93
306.985	42864.44
307.051	42882.34
307.117	42905.48
307.183	42915.11
307.248	42853.1
307.314	42900.42
307.38	42945.07
307.446	43017.09
307.512	43019.43
307.578	43075.93
307.644	43083.71
307.709	43134.88
307.775	43166.05
307.841	43211.67
307.907	43248
307.973	43235.45
308.039	43263.86
308.104	43322.32
308.17	43365.11
308.236	43352.46
308.302	43396.32
308.368	43392.82
308.433	43444.38
308.499	43467.58
308.565	43460.72
308.631	43503.61
308.696	43469.91
308.762	43463.73
308.828	43489.27
308.894	43477.99
308.959	43449.83
309.025	43473.13
309.091	43490.98
309.156	43491.08
309.222	43520.12
309.288	43532.09
309.354	43510.2
309.419	43560.07
309.485	43552.04
309.551	43611.09
309.616	43606.42
309.682	43640.23
309.748	43684.34
309.813	43685.12
309.879	43698.4
309.945	43722.62
310.01	43751.32
310.076	43810.23
310.141	43837.27
310.207	43817.28
310.273	43878.71
310.338	43940.91
310.404	43944.9
310.469	43942.81
310.535	43958.43
310.601	43922.91
310.666	43975.22
310.732	44043.81
310.797	44049.55
310.863	44059.81
310.928	44079.76
310.994	44125.44
311.059	44156.34
311.125	44173.46
311.191	44264.96
311.256	44274.44
311.322	44318.96
311.387	44296.53
311.453	45166.49
311.518	45190.52
311.584	45233.78
311.649	45280.63
311.715	45288.22
311.78	45324.9
311.846	45344.17
311.911	45404.95
311.976	45459.39
312.042	45443.72
312.107	45430.44
312.173	45429.56
312.238	45445.61
312.304	45467.51
312.369	45474.37
312.434	45472.53
312.5	45486.93
312.565	45394.07
312.631	45435.57
312.696	45449.73
312.761	45496.3
312.827	44656.95
312.892	44746.52
312.958	44774.21
313.023	44795.24
313.088	44816.84
313.154	44814.84
313.219	44801.95
313.284	44795.33
313.35	44813.63
313.415	44817.28
313.48	44837.32
313.546	44869.79
313.611	44936.51
313.676	44937.87
313.741	44946.48
313.807	44999.05
313.872	45050.05
313.937	45114.92
314.003	45180.87
314.068	45212.56
314.133	45262.94
314.198	45270.48
314.264	45250.32
314.329	45253.29
314.394	45269.26
314.459	45279.77
314.525	45370.93
314.59	45396.67
314.655	45400.66
314.72	45456.41
314.785	45506.05
314.851	45518.8
314.916	45494.47
314.981	45472.27
315.046	45467.65
315.111	45471.29
315.176	45467.64
315.242	45496.86
315.307	45526.11
315.372	45497
315.437	45504.5
315.502	45502.6
315.567	45568.81
315.632	45543.44
315.698	45577.62
315.763	45596.71
315.828	45619.49
315.893	45620.17
315.958	45628.1
316.023	45614.91
316.088	45572.5
316.153	45517.65
316.218	45518.63
316.283	45483.69
316.348	45440.92
316.413	45463.75
316.479	45411.78
316.544	45298.6
316.609	45199.56
316.674	45069.49
316.739	44950.73
316.804	44825.93
316.869	44703.7
316.934	44554.05
316.999	44440
317.064	44243.11
317.129	44082.68
317.194	43935.76
317.259	43747.53
317.324	43554.35
317.389	43384.57
317.454	43215.68
317.518	43064.54
317.583	42936.65
317.648	42818.49
317.713	42671.19
317.778	42418.89
317.843	42280.51
317.908	42119.45
317.973	41957.3
318.038	41822.45
318.103	41659.03
318.168	41512.8
318.233	41346.02
318.297	41144.41
318.362	40962.67
318.427	40789.82
318.492	40639.57
318.557	40432.67
318.622	40283.76
318.687	40152.15
318.751	39963.21
318.816	39792.03
318.881	39618.92
318.946	39371.62
319.011	39153.93
319.075	38935.01
319.14	38751.53
319.205	38542.14
319.27	38353.18
319.335	38112.85
319.399	37914.56
319.464	37740.58
319.529	37480.4
319.594	37277.35
319.658	37095.35
319.723	36876.85
319.788	36687.9
319.853	36419.91
319.917	36231.29
319.982	35970.14
320.047	35761.09
320.112	35580.7
320.176	35316.25
320.241	35105.25
320.306	34911.61
320.37	34688.52
320.435	34499.96
320.5	34320.72
320.564	34093.85
320.629	33863.65
320.694	33668.36
320.758	33425.94
320.823	33180.31
320.888	33003.5
320.952	32749.07
321.017	32508.17
321.082	32280.49
321.146	32076.89
321.211	31868.01
321.275	31625.14
321.34	31380.25
321.405	31117.82
321.469	30859.96
321.534	30630.23
321.598	30359.48
321.663	30155.69
321.727	29946.24
321.792	29686.36
321.857	29430.87
321.921	29194.74
321.986	28954.95
322.05	28661.84
322.115	28434.04
322.179	28189.64
322.244	27898.31
322.308	27682.21
322.373	27423.99
322.437	27186.15
322.502	26982.99
322.566	26727.87
322.631	26516.54
322.695	26285.3
322.76	26049.24
322.824	25828.63
322.889	25584.1
322.953	25336.89
323.018	25006.43
323.082	24688.61
323.146	24405.1
323.211	24117.73
323.275	23864.38
323.34	23607.04
323.404	23386.38
323.468	23123.92
323.533	22868.5
323.597	22611.54
323.662	22322.92
323.726	22094.92
323.79	21821.72
323.855	21481.7
323.919	21201.39
323.983	20918.67
324.048	20524.02
324.112	20572.3
324.177	19754.6
324.241	18671.45
324.305	17604.54
324.37	16563.81
324.434	15551.94
324.498	15267.27
324.562	14952.52
324.627	14590.09
324.691	14226.58
324.755	13821.68
324.82	13356.51
324.884	12862.78
324.948	12360.81
325.012	11761.77
325.077	11016.84
