Data from 20250701_urea_2M_exp3_MAYP1162681_01-19-50-131.txt Node
Date: Wed Jul 02 01:19:50 BST 2025
User: adleo
Spectrometer: MAYP116268
Trigger mode: 0
Integration Time (sec): 4.000000E0
Scans to average: 1
Electric dark correction enabled: true
Nonlinearity correction enabled: true
Boxcar width: 10
XAxis mode: Wavelengths
Number of Pixels in Spectrum: 2068
>>>>>Begin Spectral Data<<<<<
179.565	3722.92
179.642	3921.2
179.718	4065.5
179.795	4197.96
179.871	4307.8
179.948	4370.61
180.024	4439
180.101	4518.65
180.177	4565.9
180.254	4644.89
180.33	4723.12
180.407	4992.33
180.483	5277.75
180.56	5569
180.636	5838.51
180.712	5793.54
180.789	5823.66
180.865	5862.93
180.942	5894.48
181.018	5938.33
181.095	5982.73
181.171	5996.84
181.248	5996.31
181.324	6055.64
181.4	6080.69
181.477	6122.07
181.553	6165.13
181.63	6237.8
181.706	6290.32
181.782	6316.21
181.859	6315.54
181.935	6333.79
182.011	6321.5
182.088	6384.1
182.164	6454.43
182.24	6501.74
182.317	6536.58
182.393	6531.31
182.469	6579.8
182.546	6623.25
182.622	6635.97
182.698	6626.75
182.775	6671.89
182.851	6720.1
182.927	6690.8
183.003	6679.47
183.08	6657.48
183.156	6689.22
183.232	6678.99
183.308	6636.16
183.385	6669.62
183.461	6728.74
183.537	6727.15
183.613	6767.35
183.69	6736.66
183.766	6697.54
183.842	6723.43
183.918	6741.15
183.995	6784.33
184.071	6790.91
184.147	6773.66
184.223	6735.56
184.299	6770.97
184.375	6731.78
184.452	6754.13
184.528	6880.26
184.604	6914.06
184.68	6954.26
184.756	6979.34
184.832	6992.84
184.908	7015.02
184.985	7011.66
185.061	6957.43
185.137	6986.92
185.213	6947.88
185.289	6949.61
185.365	6924.16
185.441	6916.9
185.517	6963.82
185.593	6949.31
185.669	6944.84
185.745	6980.97
185.822	7032.34
185.898	7002.11
185.974	7035.53
186.05	7009.96
186.126	6938.47
186.202	6909.89
186.278	6896.83
186.354	6862.14
186.43	6883.86
186.506	6880.55
186.582	6878.92
186.658	6902.3
186.734	6837.48
186.81	6848.95
186.886	6857.26
186.962	6900.19
187.038	6884.39
187.114	6852.22
187.19	6882.69
187.266	6852.77
187.341	6849.84
187.417	6831.92
187.493	6835.48
187.569	6847.35
187.645	6827.75
187.721	6786.13
187.797	6816.72
187.873	6832.63
187.949	6813.52
188.025	6793.95
188.101	6801.64
188.176	6820.03
188.252	6804.19
188.328	6835.14
188.404	6832.21
188.48	6815.6
188.556	6789.99
188.632	6789.66
188.707	6795.09
188.783	6781.39
188.859	6760.47
188.935	6725.25
189.011	6748.88
189.086	6728.38
189.162	6695.47
189.238	6680.59
189.314	6671.23
189.39	6651.25
189.465	6627.08
189.541	6680.07
189.617	6629.21
189.693	6609.19
189.768	6619.81
189.844	6701.61
189.92	6672.43
189.996	6705.09
190.071	6741.06
190.147	6737.32
190.223	6768.55
190.298	6741.16
190.374	6697.94
190.45	6737.49
190.526	6764.63
190.601	6749.12
190.677	6752.81
190.753	6848.57
190.828	6868.74
190.904	6921.16
190.98	6970.41
191.055	7007.07
191.131	6983.67
191.207	7052.06
191.282	7088.13
191.358	7055.46
191.433	7004.6
191.509	7049.39
191.585	7040.59
191.66	7045.73
191.736	7075.61
191.811	7041.21
191.887	7100.1
191.963	7181.54
192.038	7200.71
192.114	7205.75
192.189	7216.61
192.265	7205.23
192.34	7126.81
192.416	7117.5
192.491	7102.06
192.567	7109.81
192.642	7117.83
192.718	7120.48
192.793	7080.5
192.869	7065.65
192.944	7074.92
193.02	7099.48
193.095	7113.46
193.171	7132.97
193.246	7131.1
193.322	7118.37
193.397	7122.55
193.473	7071.83
193.548	7007.28
193.624	7025.31
193.699	7019.54
193.775	7072.23
193.85	7080.39
193.925	7112.2
194.001	7114.61
194.076	7093.13
194.152	7061.07
194.227	7035.4
194.302	6999.91
194.378	7014.61
194.453	7009.09
194.529	7052.34
194.604	7003.23
194.679	6981.95
194.755	6916.69
194.83	6960.54
194.905	6955.88
194.981	6990.81
195.056	6968.81
195.131	6991.68
195.207	6988.79
195.282	6953.54
195.357	6891.92
195.433	6942.6
195.508	6904.11
195.583	6927.99
195.659	6976.63
195.734	6994.12
195.809	6985.52
195.884	7018.46
195.96	7017.93
196.035	7062.86
196.11	7045.45
196.185	7090.14
196.261	7105.7
196.336	7213.14
196.411	7165.64
196.486	7183.85
196.561	7155.93
196.637	7187.53
196.712	7241.72
196.787	7246.82
196.862	7303.17
196.937	7335.7
197.013	7353.45
197.088	7389.72
197.163	7463.79
197.238	7518.45
197.313	7525.66
197.388	7577
197.464	7680.55
197.539	7718.96
197.614	7699.64
197.689	7746.28
197.764	7799.91
197.839	7862.85
197.914	7840.63
197.989	7909.69
198.065	7957.24
198.14	8132.12
198.215	8216.63
198.29	8257.69
198.365	8301.94
198.44	8338.11
198.515	8433.77
198.59	8487.81
198.665	8575.14
198.74	8601.8
198.815	8610.13
198.89	8682.3
198.965	8783.11
199.04	8762.51
199.115	8817.65
199.19	8959.99
199.265	8963.64
199.34	8992.57
199.415	9108.1
199.49	9177.64
199.565	9210.71
199.64	9289.18
199.715	9272.41
199.79	9299.81
199.865	9316.95
199.94	9315.79
200.015	9421.11
200.09	9432.14
200.165	9454.53
200.24	9473.5
200.315	9603.68
200.39	9639.9
200.464	9663.54
200.539	9667.64
200.614	9724.93
200.689	9804.84
200.764	9825.94
200.839	9885.77
200.914	9906.82
200.989	9870.34
201.063	9917.26
201.138	9864.55
201.213	9861.18
201.288	9796.6
201.363	9810.43
201.438	9817.7
201.512	9877.25
201.587	9820.75
201.662	9835.39
201.737	9867.52
201.812	9899.84
201.886	9792.01
201.961	9832.47
202.036	9792.03
202.111	9780.71
202.186	9677.62
202.26	9617.84
202.335	9546.8
202.41	9535.14
202.485	9476.55
202.559	9402.84
202.634	9312.7
202.709	9339.36
202.784	9278.65
202.858	9285.1
202.933	9219.77
203.008	9187.41
203.082	9112.27
203.157	9099.17
203.232	8957.9
203.306	8886.58
203.381	8778.25
203.456	8698.4
203.53	8625.37
203.605	8558.51
203.68	8473.69
203.754	8458.5
203.829	8403.48
203.904	8335.31
203.978	8287.99
204.053	8301.47
204.127	8262.41
204.202	8261.06
204.277	8199.25
204.351	8177.21
204.426	8146.08
204.5	8118.32
204.575	8003.07
204.65	8039.26
204.724	8017.11
204.799	8040.23
204.873	8031.42
204.948	8023.97
205.022	7982.19
205.097	7944.93
205.171	7988.98
205.246	8023.39
205.32	8019.11
205.395	8018.49
205.469	7990.03
205.544	8006.54
205.618	7948
205.693	7991.48
205.767	7947.91
205.842	8016.94
205.916	7991.84
205.991	7964.91
206.065	7985.49
206.14	8038.97
206.214	8024
206.289	7995.61
206.363	8038.51
206.438	8041.83
206.512	8067.48
206.586	8132.3
206.661	8159.5
206.735	8086.71
206.81	8085.99
206.884	8137.83
206.958	8095.37
207.033	8150.95
207.107	8176.75
207.181	8278.53
207.256	8256.68
207.33	8319.17
207.405	8363.03
207.479	8425.04
207.553	8449.33
207.628	8395.48
207.702	8433.14
207.776	8405.14
207.851	8413.94
207.925	8465.26
207.999	8458.95
208.073	8447.16
208.148	8453.95
208.222	8411.6
208.296	8519.61
208.371	8574.26
208.445	8607.09
208.519	8700.91
208.593	8738.49
208.668	8728.96
208.742	8745.82
208.816	8751.4
208.89	8797.91
208.965	8796.99
209.039	8831.56
209.113	8883.98
209.187	8951.02
209.261	8939.13
209.336	9004.93
209.41	9083.35
209.484	9083.64
209.558	9154.17
209.632	9206.21
209.707	9252.14
209.781	9333.25
209.855	9383.38
209.929	9439.42
210.003	9461.76
210.077	9463.88
210.151	9627.74
210.226	9739.07
210.3	9824.74
210.374	9901
210.448	9909.96
210.522	9944.3
210.596	9977.64
210.67	10014.05
210.744	10168.96
210.818	10280.38
210.892	10351.82
210.966	10328.32
211.041	10382.32
211.115	10374.71
211.189	10446.15
211.263	10498.13
211.337	10518.07
211.411	10564.71
211.485	10547.94
211.559	10585.13
211.633	10589.03
211.707	10478.24
211.781	10503.11
211.855	10381.41
211.929	10351.21
212.003	10289
212.077	10318.78
212.151	10352.85
212.225	10382.82
212.299	10352.21
212.373	10309.68
212.447	10292.72
212.52	10386.04
212.594	10392.3
212.668	10420.43
212.742	10371.39
212.816	10349.32
212.89	10319.02
212.964	10308.61
213.038	10306.88
213.112	10343.93
213.186	10389.35
213.26	10310.97
213.333	10149.07
213.407	10155.19
213.481	10161.5
213.555	10195.24
213.629	10148.45
213.703	10095.27
213.777	10080.76
213.85	10001.85
213.924	10103.9
213.998	10099.8
214.072	10069.73
214.146	10012.79
214.219	10003.54
214.293	9981
214.367	9973.49
214.441	10001.96
214.515	9955.22
214.588	9866.46
214.662	9736.09
214.736	9656.92
214.81	9668.03
214.883	9683.58
214.957	9636.02
215.031	9575.71
215.105	9483.48
215.178	9418.43
215.252	9375.57
215.326	9271.71
215.4	9187.92
215.473	9006.17
215.547	8917.41
215.621	8843.81
215.694	8837.55
215.768	8731.45
215.842	8660.42
215.915	8586.08
215.989	8471.02
216.063	8405.31
216.136	8384.23
216.21	8352.34
216.284	8358.79
216.357	8337.9
216.431	8293.83
216.504	8295.51
216.578	8349.8
216.652	8361.82
216.725	8339.2
216.799	8341.85
216.873	8321.84
216.946	8325.11
217.02	8288.81
217.093	8251.33
217.167	8156.37
217.24	8071.1
217.314	8034.8
217.387	7992.46
217.461	7947.77
217.535	7967.59
217.608	7918.43
217.682	7893.18
217.755	7910.63
217.829	7846.22
217.902	7828.28
217.976	7807.46
218.049	7753.5
218.123	7678.54
218.196	7676.66
218.27	7641.41
218.343	7569.44
218.417	7566.07
218.49	7543.66
218.563	7585.11
218.637	7594.1
218.71	7667.3
218.784	7697.65
218.857	7733.37
218.931	7752.84
219.004	7762.69
219.077	7782.37
219.151	7794.78
219.224	7780.54
219.298	7774.39
219.371	7825.66
219.444	7784.95
219.518	7796.82
219.591	7823.84
219.665	7925.44
219.738	7943.04
219.811	7914.73
219.885	7956.14
219.958	7985.39
220.031	7991.06
220.105	8011.22
220.178	8017.81
220.251	7990.43
220.325	8010.01
220.398	8027.09
220.471	8047
220.544	8082.06
220.618	8055.89
220.691	8082.15
220.764	8106.77
220.838	8138.72
220.911	8124.24
220.984	8211.62
221.057	8248.27
221.131	8269.44
221.204	8173.9
221.277	8234.15
221.35	8369.2
221.424	8364.54
221.497	8376.9
221.57	8396.76
221.643	8430.26
221.716	8479.79
221.79	8482.19
221.863	8491.58
221.936	8503.94
222.009	8517.65
222.082	8546.72
222.155	8564.38
222.229	8628.36
222.302	8651.84
222.375	8655.4
222.448	8692.07
222.521	8698.33
222.594	8701.55
222.667	8672.55
222.74	8732.89
222.814	8734.09
222.887	8713.05
222.96	8770.86
223.033	8818.96
223.106	8850.03
223.179	8879.27
223.252	8892.6
223.325	8925.47
223.398	8938.86
223.471	8960.03
223.544	8990.01
223.617	9005.8
223.69	9024.96
223.763	8985.05
223.837	9012.15
223.91	9048.59
223.983	8999.79
224.056	8965
224.129	8989.98
224.202	9046.7
224.275	9035.73
224.348	9002.18
224.42	8963.86
224.493	8901.14
224.566	8867.19
224.639	8885.43
224.712	8852.5
224.785	8839.49
224.858	8831.31
224.931	8819.66
225.004	8782.27
225.077	8777.07
225.15	8683.1
225.223	8679.29
225.296	8762.71
225.369	8703.37
225.442	8663.94
225.514	8687.27
225.587	8704.07
225.66	8704.36
225.733	8704.45
225.806	8710.57
225.879	8705.9
225.952	8678.23
226.025	8723.52
226.097	8783.77
226.17	8779.24
226.243	8715.73
226.316	8709.28
226.389	8709.81
226.461	8728.63
226.534	8748.55
226.607	8735.51
226.68	8819.81
226.753	8808.83
226.825	8722.92
226.898	8778.6
226.971	8785.96
227.044	8802.61
227.117	8809.21
227.189	8828.08
227.262	8864
227.335	8880.61
227.407	8872.72
227.48	8902.21
227.553	8918.87
227.626	8893.1
227.698	8896.57
227.771	8936.69
227.844	8908.48
227.916	8924.32
227.989	8890.04
228.062	8886.15
228.134	8977.58
228.207	8983.12
228.28	8983.36
228.352	8995.58
228.425	9004.93
228.498	9050.09
228.57	9030.36
228.643	9095.7
228.716	9095.8
228.788	9083.56
228.861	9077.69
228.934	9138.05
229.006	9152.35
229.079	9151.96
229.151	9142.09
229.224	9109.94
229.296	9134.4
229.369	9245.26
229.442	9297.99
229.514	9279.52
229.587	9321.49
229.659	9248.92
229.732	9257.59
229.804	9298.85
229.877	9383.91
229.949	9415.7
230.022	9462.62
230.094	9462.14
230.167	9444.7
230.239	9400.94
230.312	9387.7
230.384	9458.6
230.457	9459.42
230.529	9464.81
230.602	9466.98
230.674	9472.71
230.747	9516.46
230.819	9549.16
230.892	9431.75
230.964	9435.7
231.037	9462.7
231.109	9463.95
231.181	9502.13
231.254	9465.05
231.326	9448.2
231.399	9415.73
231.471	9388.71
231.544	9306.2
231.616	9354.15
231.688	9360.03
231.761	9353.96
231.833	9344.77
231.905	9260.15
231.978	9260.72
232.05	9247.77
232.122	9249.56
232.195	9228.75
232.267	9264.53
232.339	9243.44
232.412	9302.99
232.484	9276.5
232.556	9251.71
232.629	9318.53
232.701	9340.11
232.773	9352.67
232.846	9345.79
232.918	9354.46
232.99	9367.41
233.062	9416.19
233.135	9424.57
233.207	9383.06
233.279	9426.92
233.351	9455.95
233.424	9454.22
233.496	9427.4
233.568	9511.72
233.64	9473.98
233.713	9493.29
233.785	9484.28
233.857	9503.78
233.929	9455.98
234.001	9517.64
234.074	9583.54
234.146	9508.11
234.218	9499.63
234.29	9498.86
234.362	9487.41
234.434	9442.18
234.507	9409.1
234.579	9356.13
234.651	9337.49
234.723	9375.63
234.795	9390.17
234.867	9386.95
234.939	9449.93
235.012	9472.37
235.084	9472.03
235.156	9514.5
235.228	9491.58
235.3	9475.21
235.372	9482.96
235.444	9542.66
235.516	9461.83
235.588	9469.2
235.66	9482.49
235.732	9456.49
235.804	9482.05
235.876	9528.61
235.948	9593.74
236.02	9611.74
236.092	9624.4
236.164	9638.75
236.236	9640.68
236.308	9639.14
236.38	9663.41
236.452	9642.03
236.524	9659.75
236.596	9726.64
236.668	9761.47
236.74	9791.37
236.812	9823.93
236.884	9858.62
236.956	9868.68
237.028	9864.2
237.1	9845.57
237.172	9915.18
237.244	9988.54
237.316	10038.69
237.388	10017.36
237.46	9994.62
237.532	10054.64
237.604	10044.24
237.675	10117.13
237.747	10162.32
237.819	10151.39
237.891	10158.61
237.963	10151
238.035	10145.95
238.107	10032.28
238.178	10090.88
238.25	10088.38
238.322	10181.72
238.394	10129.84
238.466	10136.63
238.538	10180.41
238.609	10223.08
238.681	10170.86
238.753	10155.34
238.825	10180.98
238.897	10212.42
238.968	10297.29
239.04	10277.77
239.112	10398.01
239.184	10357.25
239.255	10356.62
239.327	10393.13
239.399	10416.01
239.471	10467.32
239.542	10502.72
239.614	10571.04
239.686	10479.73
239.758	10539.76
239.829	10501.01
239.901	10563.92
239.973	10577.75
240.044	10611.38
240.116	10623.19
240.188	10642.45
240.259	10653.78
240.331	10642.55
240.403	10682.68
240.474	10631.06
240.546	10622.68
240.618	10558.45
240.689	10563.07
240.761	10572.57
240.833	10644.51
240.904	10642.73
240.976	10638.92
241.048	10654.82
241.119	10694.97
241.191	10750.52
241.262	10817.65
241.334	10817.94
241.405	10826.96
241.477	10828.02
241.549	10837.46
241.62	10869.41
241.692	10912.25
241.763	10978.51
241.835	11002.71
241.906	11019.14
241.978	10989.56
242.049	11053.45
242.121	11117.63
242.192	11182.78
242.264	11155.66
242.335	11100.43
242.407	11140.33
242.478	11148.67
242.55	11165.53
242.621	11150.98
242.693	11153.63
242.764	11139.02
242.836	11143.5
242.907	11174.06
242.979	11208.03
243.05	11225.33
243.122	11246.25
243.193	11243.07
243.264	11165.48
243.336	11162.92
243.407	11201.05
243.479	11281.19
243.55	11299.55
243.622	11312.28
243.693	11317.53
243.764	11388.13
243.836	11366.11
243.907	11360.47
243.978	11369.58
244.05	11405.44
244.121	11357.4
244.192	11393.88
244.264	11347.56
244.335	11365.97
244.407	11316.24
244.478	11329.59
244.549	11326.17
244.62	11278.74
244.692	11280.34
244.763	11327.85
244.834	11318.21
244.906	11292.14
244.977	11315.32
245.048	11366.13
245.119	11340.1
245.191	11310.65
245.262	11244.78
245.333	11319.75
245.405	11341.87
245.476	11367.56
245.547	11380.19
245.618	11435.75
245.689	11451.27
245.761	11486.65
245.832	11487.71
245.903	11538.41
245.974	11564.82
246.045	11584.58
246.117	11671.43
246.188	11656.98
246.259	11640.93
246.33	11664.21
246.401	11674.66
246.473	11638.18
246.544	11627.38
246.615	11694.81
246.686	11695.19
246.757	11774.23
246.828	11753.7
246.899	11825.57
246.97	11791.6
247.042	11778.82
247.113	11818.4
247.184	11908.3
247.255	11906.95
247.326	11940.11
247.397	11941.9
247.468	11949.8
247.539	11956.89
247.61	11910.57
247.681	11952.25
247.752	12006.57
247.823	11982.77
247.894	12002.82
247.965	11978.86
248.037	11965.08
248.108	11903.14
248.179	11915.72
248.25	11904.78
248.321	11933.07
248.392	11879.42
248.463	11960.58
248.534	11965.74
248.605	11988.06
248.675	11961.78
248.746	11981.88
248.817	11993.89
248.888	12022.32
248.959	11972.54
249.03	12001.02
249.101	12010.52
249.172	12000.2
249.243	11922.56
249.314	11989.17
249.385	11996.16
249.456	12027.83
249.527	12019.05
249.598	12047.49
249.669	12055.93
249.739	12074.82
249.81	12090.58
249.881	12054.53
249.952	12056.99
250.023	12049.13
250.094	11992.3
250.165	11958.7
250.235	11952.72
250.306	11958.17
250.377	11915.42
250.448	11940.96
250.519	11875.31
250.59	11930.89
250.66	11928.67
250.731	12008.53
250.802	12003.95
250.873	12029.45
250.944	12045.79
251.014	12040.4
251.085	12137.58
251.156	12160.52
251.227	12202.46
251.297	12257.94
251.368	12310.19
251.439	12348.03
251.51	12404.82
251.58	12397.97
251.651	12389.63
251.722	12447
251.792	12395.66
251.863	12404.43
251.934	12467.39
252.005	12585.43
252.075	12590.74
252.146	12643.08
252.217	12688.25
252.287	12731.01
252.358	12725.03
252.429	12800.38
252.499	12799.75
252.57	12795.32
252.641	12843.04
252.711	12851.48
252.782	12805.25
252.852	12885.27
252.923	12889.51
252.994	12899.39
253.064	12951.93
253.135	12937.28
253.205	12916.79
253.276	12986.64
253.347	13055.91
253.417	13030.12
253.488	13008.33
253.558	13001.53
253.629	12996.76
253.699	13001.58
253.77	13022.36
253.841	13021.54
253.911	13028.43
253.982	13035.23
254.052	13072.97
254.123	13079.14
254.193	13088.16
254.264	13230.27
254.334	13190.83
254.405	13159.64
254.475	13133.76
254.546	13133.37
254.616	13192.81
254.687	13219.76
254.757	13248.25
254.827	13244.25
254.898	13274.13
254.968	13280.01
255.039	13264.64
255.109	13296.45
255.18	13270.9
255.25	13198.31
255.321	13222.46
255.391	13182.01
255.461	13266.85
255.532	13179.36
255.602	13170.49
255.673	13108.64
255.743	13071.04
255.813	13004.62
255.884	13053.98
255.954	13089.27
256.024	13150.92
256.095	13157.04
256.165	13121.28
256.235	13139.26
256.306	13120.31
256.376	13162.49
256.446	13199.32
256.517	13234.22
256.587	13284.65
256.657	13314.73
256.728	13342.78
256.798	13370.65
256.868	13365.01
256.938	13340.61
257.009	13394.51
257.079	13433.51
257.149	13532.91
257.219	13466.14
257.29	13499.11
257.36	13438.71
257.43	13481.9
257.5	13423.67
257.571	13414.42
257.641	13447.34
257.711	13412.1
257.781	13455.39
257.852	13476.36
257.922	13412.92
257.992	13417.84
258.062	13404.15
258.132	13444.98
258.202	13451.24
258.273	13454.43
258.343	13530.93
258.413	13517.29
258.483	13519.26
258.553	13480.31
258.623	13460.69
258.693	13492.75
258.764	13564.09
258.834	13633.99
258.904	13643.63
258.974	13629.94
259.044	13641.71
259.114	13673.62
259.184	13710.11
259.254	13724.57
259.324	13667.88
259.394	13718.4
259.464	13796.3
259.535	13809.51
259.605	13794.86
259.675	13792.45
259.745	13828.55
259.815	13799.53
259.885	13806.23
259.955	13919.22
260.025	13911.07
260.095	13920.28
260.165	13950.51
260.235	14015.2
260.305	13993.41
260.375	13956.92
260.445	14048.65
260.515	14117.97
260.585	14165.07
260.655	14169.17
260.725	14192.93
260.795	14230.15
260.865	14306.36
260.934	14271.99
261.004	14305.64
261.074	14312.14
261.144	14373.46
261.214	14401.95
261.284	14411.01
261.354	14448.9
261.424	14401.72
261.494	14478.03
261.564	14485.69
261.634	14512.88
261.703	14435.94
261.773	14467.76
261.843	14495.43
261.913	14486.95
261.983	14426.11
262.053	14441.2
262.123	14435.99
262.192	14400.8
262.262	14443.56
262.332	14385.33
262.402	14418.98
262.472	14424.23
262.541	14368.41
262.611	14402.63
262.681	14380.31
262.751	14415.89
262.821	14419.65
262.89	14385.86
262.96	14410.4
263.03	14484.58
263.1	14499.76
263.169	14529.46
263.239	14556.84
263.309	14636.95
263.379	14665.44
263.448	14689.25
263.518	14715.86
263.588	14733.7
263.657	14807.69
263.727	14845.96
263.797	14865.01
263.867	14861.25
263.936	14820.75
264.006	14887.52
264.076	14886.89
264.145	14892.15
264.215	14876.34
264.285	14916.63
264.354	14875.9
264.424	14860.38
264.494	14817.38
264.563	14812.37
264.633	14889.4
264.702	14911.76
264.772	14846.79
264.842	14850.98
264.911	14879.37
264.981	14839.66
265.05	14851.66
265.12	14845.15
265.19	14860.91
265.259	14910.95
265.329	14948.26
265.398	14976.75
265.468	15074.69
265.537	15071.27
265.607	15094.12
265.676	15147
265.746	15167.77
265.815	15223.54
265.885	15234.58
265.955	15216.36
266.024	15217.76
266.094	15150.33
266.163	15212.99
266.232	15286.78
266.302	15297.58
266.371	15326.26
266.441	15353.73
266.51	15401.84
266.58	15415.53
266.649	15389.94
266.719	15437.94
266.788	15456.55
266.858	15529.57
266.927	15456.6
266.996	15484.17
267.066	15517.96
267.135	15481.76
267.205	15526.92
267.274	15549.14
267.343	15599.22
267.413	15611.56
267.482	15678.95
267.552	15744.26
267.621	15696.78
267.69	15647.38
267.76	15676.73
267.829	15696.98
267.898	15709.8
267.968	15691.39
268.037	15727.39
268.106	15787.25
268.176	15752.17
268.245	15763.83
268.314	15754.57
268.384	15816.22
268.453	15837.24
268.522	15867.8
268.592	15935.66
268.661	15918.79
268.73	15956.92
268.799	15946.7
268.869	16040.5
268.938	15990.76
269.007	15977.99
269.076	16000.83
269.146	16063.39
269.215	16087.21
269.284	16158.39
269.353	16153.67
269.422	16169.91
269.492	16163.11
269.561	16076.55
269.63	16113.71
269.699	16109.9
269.768	16129.52
269.838	16153.66
269.907	16199.55
269.976	16159.88
270.045	16098.09
270.114	16134.72
270.183	16138.62
270.253	16169.42
270.322	16113.03
270.391	16139.44
270.46	16207.11
270.529	16257.52
270.598	16296.51
270.667	16302.44
270.736	16279.26
270.806	16321.39
270.875	16376.19
270.944	16384.48
271.013	16512.59
271.082	16536.78
271.151	16578.42
271.22	16536.05
271.289	16539.14
271.358	16545.45
271.427	16589.99
271.496	16627.63
271.565	16624.89
271.634	16649.47
271.703	16782.09
271.772	16839.93
271.841	16846.15
271.91	16821.9
271.979	16837.18
272.048	16811.06
272.117	16863.11
272.186	16856.65
272.255	16907.01
272.324	16952.51
272.393	16991.07
272.462	16987.5
272.531	17006.68
272.6	17012.95
272.669	17088.95
272.738	17103.7
272.807	17131.17
272.876	17120.9
272.945	17267.7
273.013	17333.68
273.082	17399.94
273.151	17308.19
273.22	17352
273.289	17378.6
273.358	17453.93
273.427	17465.93
273.496	17519.03
273.564	17552.58
273.633	17607.81
273.702	17584.72
273.771	17587.81
273.84	17621.54
273.909	17648.24
273.977	17690.41
274.046	17710.6
274.115	17765.97
274.184	17761.78
274.253	17779.51
274.322	17856.82
274.39	17788.72
274.459	17785.83
274.528	17733.06
274.597	17756.39
274.665	17783.37
274.734	17859.47
274.803	17872.24
274.872	17894.65
274.94	17882.17
275.009	18103
275.078	18107.43
275.147	18146.52
275.215	18175
275.284	18244.2
275.353	18259.28
275.421	18226.51
275.49	18324.34
275.559	18337.01
275.627	18367.95
275.696	18387.23
275.765	18426.55
275.833	18442.07
275.902	18482.21
275.971	18567.37
276.039	18656.76
276.108	18720.9
276.177	18758.44
276.245	18770.92
276.314	18798.44
276.383	18865.71
276.451	18697.65
276.52	18747.28
276.588	18837.35
276.657	18904.19
276.725	18908.38
276.794	18958.5
276.863	19038.54
276.931	18999.89
277	19065.24
277.068	19146.63
277.137	19252.85
277.205	19286.34
277.274	19397.66
277.342	19473.75
277.411	19461.8
277.48	19456.31
277.548	19463.53
277.617	19514.33
277.685	19535.82
277.754	19595.33
277.822	19618.13
277.89	19709.93
277.959	19732.34
278.027	19706.18
278.096	19700.49
278.164	19830.76
278.233	19841.99
278.301	19841.65
278.37	19904.73
278.438	19906.9
278.507	19945.84
278.575	19901.84
278.643	19932.49
278.712	19910.51
278.78	19899.28
278.849	19967.91
278.917	20053.3
278.985	20077.83
279.054	20119.91
279.122	20201.3
279.191	20236.92
279.259	20255.13
279.327	20228.53
279.396	20324.48
279.464	20364.82
279.532	20444.53
279.601	20468.25
279.669	20513.55
279.737	20607.04
279.806	20661.5
279.874	20736.78
279.942	20779.05
280.011	20811.48
280.079	20878.38
280.147	20978.04
280.215	21037.95
280.284	21066.53
280.352	21054.48
280.42	21121.52
280.488	21133.23
280.557	21151.36
280.625	21209.15
280.693	21269.63
280.761	21329.73
280.83	21319.51
280.898	21402.85
280.966	21373.74
281.034	21314.06
281.102	21313.77
281.171	21345.2
281.239	21416.98
281.307	21431.44
281.375	21441.08
281.443	21569.83
281.512	21597.35
281.58	21665.28
281.648	21659.49
281.716	21703.5
281.784	21766.26
281.852	21789.59
281.92	21827.62
281.989	21909.18
282.057	21898.29
282.125	22078.82
282.193	22107.02
282.261	22149.73
282.329	22170.99
282.397	22233.46
282.465	22288.65
282.533	22379.07
282.601	22381.77
282.67	22344.12
282.738	22359.98
282.806	22443.96
282.874	22444.58
282.942	22500.66
283.01	22519.17
283.078	22585.12
283.146	22624.98
283.214	22693.84
283.282	22745.96
283.35	22843.17
283.418	22858.07
283.486	22922.38
283.554	22839.46
283.622	22880.35
283.69	22923.35
283.758	22954.69
283.826	23020.17
283.894	23104.41
283.962	23206.46
284.03	23301.01
284.098	23363.79
284.165	23396.33
284.233	23439.68
284.301	23471.17
284.369	23486.94
284.437	23502.81
284.505	23532.8
284.573	23631.41
284.641	23629.44
284.709	23702.51
284.777	23682.69
284.845	23765.27
284.912	23822.27
284.98	23872.72
285.048	23907.2
285.116	23979.26
285.184	24076.5
285.252	24124.01
285.319	24118.99
285.387	24136.6
285.455	24132.65
285.523	24200.71
285.591	24242.66
285.659	24291.62
285.726	24370.21
285.794	24375.71
285.862	24417.48
285.93	24467.54
285.997	24495.48
286.065	24518.25
286.133	24538.17
286.201	24577.68
286.269	24574.64
286.336	24593.16
286.404	24616.9
286.472	24689.7
286.539	24655.55
286.607	24648.41
286.675	24696.81
286.743	24762.18
286.81	24791.96
286.878	24877.74
286.946	24888.65
287.013	24937.27
287.081	24965.89
287.149	24964.49
287.216	25080.44
287.284	25106.54
287.352	25151.46
287.419	25184.18
287.487	25289.87
287.555	25343.35
287.622	25379.44
287.69	25432.29
287.758	25517.28
287.825	25550.05
287.893	25554.49
287.96	25632.74
288.028	25713.55
288.096	25763.94
288.163	25825.3
288.231	25830.51
288.298	25867.06
288.366	25961.58
288.433	26000.23
288.501	26027.8
288.569	26084.47
288.636	26104.99
288.704	26204.5
288.771	26269.96
288.839	26281.11
288.906	26306.12
288.974	26378.91
289.041	26421.92
289.109	26441.28
289.176	26522.63
289.244	26583.12
289.311	26676.12
289.379	26756.37
289.446	26803.03
289.514	26846.54
289.581	26894.6
289.649	26953.99
289.716	27010.17
289.783	27034.61
289.851	27139.89
289.918	27176.2
289.986	27248.95
290.053	27301.16
290.121	27330.15
290.188	27390.3
290.255	27532.67
290.323	27560.01
290.39	27583.3
290.458	27651.45
290.525	27753.2
290.592	27774.32
290.66	27830.69
290.727	27863.46
290.794	27955.67
290.862	28009.89
290.929	28070.35
290.996	28113.94
291.064	28198.8
291.131	28280.01
291.198	28361.36
291.266	28403.79
291.333	28480.23
291.4	28545.88
291.468	28661.87
291.535	28701.94
291.602	28766.58
291.669	28788.34
291.737	28852.91
291.804	28900.39
291.871	29007.91
291.938	29069.57
292.006	29204.83
292.073	29286.44
292.14	29372.23
292.207	29385.34
292.275	29428.28
292.342	29497.83
292.409	29620.12
292.476	29729.46
292.543	29742.23
292.611	29785.95
292.678	29883.62
292.745	29999.66
292.812	30071.8
292.879	30099.58
292.946	30152.83
293.014	30239.64
293.081	30309.94
293.148	30401.85
293.215	30494.13
293.282	30511.5
293.349	30594.66
293.416	30563.72
293.484	30640.91
293.551	30698.21
293.618	30792.96
293.685	30909.91
293.752	30929.22
293.819	30956.04
293.886	30960.98
293.953	31036.09
294.02	31119.3
294.087	31183.99
294.154	31199.19
294.221	31298.87
294.288	31344.43
294.356	31451.07
294.423	31498.14
294.49	31524.48
294.557	31604.33
294.624	31626.22
294.691	31745.49
294.758	31790.15
294.825	31867.28
294.892	31899.43
294.959	31953.92
295.026	32034.09
295.093	32062.43
295.16	32127.84
295.226	32181.08
295.293	32315.53
295.36	32391.05
295.427	32476.91
295.494	32570.2
295.561	32654.24
295.628	32770.81
295.695	32869.46
295.762	32929.79
295.829	33020.76
295.896	33135.4
295.963	33214.69
296.03	33289.84
296.096	33345.19
296.163	33426.96
296.23	33537.48
296.297	33644.24
296.364	33700.12
296.431	33762.9
296.498	33803.95
296.564	33936.17
296.631	33999.96
296.698	33997.78
296.765	34110.22
296.832	34127.28
296.899	34134.9
296.965	34251.76
297.032	34224.93
297.099	34339.36
297.166	34415.68
297.233	34460.69
297.299	34480.71
297.366	34542.07
297.433	34605.63
297.5	34690.9
297.566	34747.66
297.633	34794.22
297.7	34856.16
297.767	34904.26
297.833	34971.84
297.9	35039.49
297.967	35032.79
298.033	35132.72
298.1	35285.27
298.167	35308.02
298.234	35384.32
298.3	35467.52
298.367	35500.9
298.434	35581.11
298.5	35588.68
298.567	35624.68
298.634	35660.63
298.7	35777.9
298.767	35837.3
298.834	35941.04
298.9	35980.98
298.967	36004.9
299.033	36091.88
299.1	36189.97
299.167	36291.97
299.233	36331.76
299.3	36421.49
299.366	36528.53
299.433	36611.11
299.5	36572.71
299.566	36636.1
299.633	36735.12
299.699	36811.14
299.766	36849.68
299.832	36917.4
299.899	36989.59
299.965	37089.25
300.032	37134.39
300.099	37187.02
300.165	37244.02
300.232	37277.71
300.298	37331.26
300.365	37419.85
300.431	37458.31
300.498	37467.3
300.564	37523.96
300.631	37597.56
300.697	37700.95
300.763	37726.49
300.83	37769.71
300.896	37856.18
300.963	37929.9
301.029	37989.54
301.096	38049.18
301.162	38137.8
301.229	38162.32
301.295	38172.33
301.361	38224.98
301.428	38284.45
301.494	38294.41
301.561	38347.88
301.627	38404.9
301.693	38454.43
301.76	38517.04
301.826	38548.86
301.892	38637.74
301.959	38713.37
302.025	38757.72
302.092	38772.24
302.158	38871.66
302.224	38930.4
302.291	38956.09
302.357	38991.65
302.423	39017.11
302.49	39046.4
302.556	39123.8
302.622	39182.43
302.688	39285.9
302.755	39357.76
302.821	39435.87
302.887	39522.44
302.954	39567.96
303.02	39643.9
303.086	39704.28
303.152	39738.68
303.219	39764.19
303.285	39828.28
303.351	39897.53
303.417	39956.51
303.483	39969.82
303.55	39994.6
303.616	40034.5
303.682	40087.94
303.748	40112.67
303.815	40201.21
303.881	40278.14
303.947	40291.65
304.013	40338.1
304.079	40346.17
304.145	40344.96
304.212	40391.31
304.278	40409.97
304.344	40441.22
304.41	40440.1
304.476	40455.12
304.542	40494.43
304.608	40577.28
304.674	40569.26
304.741	40590.12
304.807	40646.2
304.873	40715.11
304.939	40807.12
305.005	40789.14
305.071	40815.57
305.137	40860.62
305.203	40833.3
305.269	40857.12
305.335	40938.11
305.401	40967.9
305.467	41008.19
305.533	41081.15
305.599	41149.54
305.666	41222.69
305.732	41286.22
305.798	41373.23
305.864	41509.49
305.93	41570.25
305.996	41599.91
306.062	41644.53
306.128	41679.92
306.194	41677.83
306.259	41722.89
306.325	41715.94
306.391	41802.32
306.457	41883.44
306.523	41947.32
306.589	42063.32
306.655	42084.76
306.721	42064.05
306.787	42077.66
306.853	42171.25
306.919	42157.69
306.985	42166.59
307.051	42182.82
307.117	42193.96
307.183	42209.47
307.248	42144.84
307.314	42190.99
307.38	42237.03
307.446	42301.21
307.512	42316.43
307.578	42368.41
307.644	42385.91
307.709	42450.63
307.775	42479.22
307.841	42510.58
307.907	42546.08
307.973	42517.29
308.039	42566.3
308.104	42619.4
308.17	42659.56
308.236	42653.58
308.302	42702.34
308.368	42707.5
308.433	42748.44
308.499	42773.24
308.565	42792.44
308.631	42861.39
308.696	42831.64
308.762	42835.14
308.828	42859.11
308.894	42828
308.959	42800.82
309.025	42814.72
309.091	42829.61
309.156	42829.75
309.222	42868.27
309.288	42871.48
309.354	42856.46
309.419	42887.59
309.485	42876.94
309.551	42933.3
309.616	42912.58
309.682	42935.49
309.748	42961.6
309.813	42977.31
309.879	42993.02
309.945	42994.18
310.01	43002.94
310.076	43043.93
310.141	43063
310.207	43044.37
310.273	43110.26
310.338	43176.29
310.404	43173.18
310.469	43184.46
310.535	43200.9
310.601	43169
310.666	43223.04
310.732	43290.93
310.797	43283.58
310.863	43298.61
310.928	43307.95
310.994	43361.54
311.059	43384.55
311.125	43400.26
311.191	43465.98
311.256	43457.18
311.322	43507.57
311.387	43487.53
311.453	44405.06
311.518	44447.19
311.584	44493.35
311.649	44529.88
311.715	44528.61
311.78	44571.31
311.846	44565.67
311.911	44624.58
311.976	44665.88
312.042	44657.95
312.107	44646.52
312.173	44649.97
312.238	44654.64
312.304	44686.89
312.369	44691.95
312.434	44710.88
312.5	44728.63
312.565	44665.68
312.631	44727.84
312.696	44730.08
312.761	44775.75
312.827	43909.2
312.892	43990.96
312.958	44013.64
313.023	44048.13
313.088	44076.98
313.154	44058.74
313.219	44057.81
313.284	44051.15
313.35	44076.93
313.415	44085.01
313.48	44095.61
313.546	44151.95
313.611	44219.18
313.676	44209.16
313.741	44207.41
313.807	44245.17
313.872	44292.75
313.937	44347.91
314.003	44406.41
314.068	44452.83
314.133	44508.83
314.198	44515.69
314.264	44477.34
314.329	44482.64
314.394	44500.45
314.459	44528.23
314.525	44635.86
314.59	44667.23
314.655	44676.92
314.72	44718.47
314.785	44743.78
314.851	44773.94
314.916	44748.73
314.981	44724.31
315.046	44734.23
315.111	44747.85
315.176	44751.55
315.242	44798.18
315.307	44819.44
315.372	44788.3
315.437	44782.7
315.502	44786.16
315.567	44845.48
315.632	44834.48
315.698	44860.03
315.763	44871.38
315.828	44871.86
315.893	44864.51
315.958	44884.56
316.023	44869.23
316.088	44837.84
316.153	44807.09
316.218	44799.11
316.283	44751.64
316.348	44737.14
316.413	44737.24
316.479	44702.36
316.544	44590.57
316.609	44478.61
316.674	44372.9
316.739	44252.76
316.804	44138.7
316.869	44003.85
316.934	43858.86
316.999	43741.64
317.064	43567.95
317.129	43409.85
317.194	43272.22
317.259	43111.07
317.324	42914.71
317.389	42750.7
317.454	42588.9
317.518	42434.19
317.583	42306.49
317.648	42199.52
317.713	42024.98
317.778	41796.23
317.843	41654.12
317.908	41497.91
317.973	41330.69
318.038	41181.52
318.103	41022.8
318.168	40880.73
318.233	40717.38
318.297	40509.59
318.362	40327.5
318.427	40145.54
318.492	40004.9
318.557	39790.7
318.622	39624.32
318.687	39489.27
318.751	39295.32
318.816	39126.21
318.881	38944.2
318.946	38701.76
319.011	38480.13
319.075	38291.55
319.14	38113.82
319.205	37895
319.27	37707.69
319.335	37489.5
319.399	37279.27
319.464	37108.58
319.529	36848.99
319.594	36648.7
319.658	36478.73
319.723	36259.13
319.788	36074.5
319.853	35801.52
319.917	35628.85
319.982	35376.02
320.047	35159.16
320.112	34979.02
320.176	34722.48
320.241	34516.3
320.306	34320.44
320.37	34093.83
320.435	33896
320.5	33701.19
320.564	33475.08
320.629	33254.19
320.694	33058.98
320.758	32835.11
320.823	32590.77
320.888	32406.9
320.952	32149.61
321.017	31910.76
321.082	31694.44
321.146	31484.42
321.211	31282.73
321.275	31039.29
321.34	30791.8
321.405	30549.78
321.469	30313.81
321.534	30087.21
321.598	29827.83
321.663	29634.03
321.727	29433.45
321.792	29164.28
321.857	28920.35
321.921	28699.79
321.986	28451.95
322.05	28158.95
322.115	27940.3
322.179	27699.83
322.244	27415.65
322.308	27207.4
322.373	26950.88
322.437	26706.7
322.502	26514.61
322.566	26262.69
322.631	26043.6
322.695	25810.83
322.76	25569.64
322.824	25338.2
322.889	25082.86
322.953	24828.66
323.018	24495.47
323.082	24182.96
323.146	23906.85
323.211	23624.05
323.275	23362.64
323.34	23107.41
323.404	22883.26
323.468	22620.35
323.533	22359.9
323.597	22102.97
323.662	21818.19
323.726	21592.68
323.79	21328.61
323.855	20996.53
323.919	20727.86
323.983	20459.43
324.048	20069.8
324.112	20233.7
324.177	19425.18
324.241	18368.38
324.305	17331.07
324.37	16316.95
324.434	15322.05
324.498	15053.87
324.562	14748.98
324.627	14403.19
324.691	14058.87
324.755	13673.66
324.82	13222.72
324.884	12763.09
324.948	12295.33
325.012	11729.88
325.077	11016.36
