Data from 20250701_urea_2M_exp3_MAYP1162681_22-19-50-990.txt Node
Date: Tue Jul 01 22:19:50 BST 2025
User: adleo
Spectrometer: MAYP116268
Trigger mode: 0
Integration Time (sec): 4.000000E0
Scans to average: 1
Electric dark correction enabled: true
Nonlinearity correction enabled: true
Boxcar width: 10
XAxis mode: Wavelengths
Number of Pixels in Spectrum: 2068
>>>>>Begin Spectral Data<<<<<
179.565	3827.07
179.642	4027.8
179.718	4181.84
179.795	4315.03
179.871	4433.21
179.948	4495.76
180.024	4574.24
180.101	4652.83
180.177	4708.74
180.254	4794.62
180.33	4873.28
180.407	5152.24
180.483	5446.92
180.56	5747.64
180.636	6021.98
180.712	5980.26
180.789	6011.3
180.865	6053.74
180.942	6083.48
181.018	6124.79
181.095	6166.95
181.171	6183.27
181.248	6182.83
181.324	6238.63
181.4	6266.52
181.477	6302
181.553	6350.98
181.63	6415.84
181.706	6472.84
181.782	6503.02
181.859	6497.93
181.935	6515.89
182.011	6498.46
182.088	6555.17
182.164	6631.24
182.24	6681.83
182.317	6714.86
182.393	6712.89
182.469	6764.66
182.546	6814.8
182.622	6830.07
182.698	6816.62
182.775	6862.49
182.851	6914.84
182.927	6892.02
183.003	6880.26
183.08	6863.64
183.156	6897.46
183.232	6887.56
183.308	6845.58
183.385	6867.1
183.461	6930.22
183.537	6933.92
183.613	6985.52
183.69	6956.45
183.766	6915.11
183.842	6941.1
183.918	6955.76
183.995	6997.26
184.071	7004.57
184.147	6987.75
184.223	6950.73
184.299	6991.87
184.375	6951.33
184.452	6979.02
184.528	7107.3
184.604	7147.75
184.68	7188.92
184.756	7208.43
184.832	7223.09
184.908	7245.37
184.985	7246.14
185.061	7187.14
185.137	7222.89
185.213	7180.42
185.289	7189.02
185.365	7159.86
185.441	7156.74
185.517	7207.61
185.593	7193.53
185.669	7187.81
185.745	7222.8
185.822	7281.58
185.898	7249.91
185.974	7287.03
186.05	7256.74
186.126	7175.03
186.202	7145.73
186.278	7132.13
186.354	7099.83
186.43	7128.25
186.506	7124.69
186.582	7122.19
186.658	7145.53
186.734	7071.41
186.81	7079.82
186.886	7091.15
186.962	7135.74
187.038	7115.8
187.114	7082.61
187.19	7115.87
187.266	7083.98
187.341	7080.27
187.417	7053.56
187.493	7060.77
187.569	7070.14
187.645	7047.32
187.721	7012.04
187.797	7040.14
187.873	7049.99
187.949	7033.61
188.025	7011.26
188.101	7018.32
188.176	7039.74
188.252	7026.73
188.328	7056.54
188.404	7056.4
188.48	7036.13
188.556	7012.63
188.632	7020.07
188.707	7024.59
188.783	7006.66
188.859	6987.41
188.935	6949.55
189.011	6974.1
189.086	6948.49
189.162	6919.33
189.238	6905.64
189.314	6893.1
189.39	6872.35
189.465	6849.09
189.541	6907.24
189.617	6853.44
189.693	6835.05
189.768	6845
189.844	6926.96
189.92	6897.72
189.996	6921.6
190.071	6963.26
190.147	6955.96
190.223	6980.32
190.298	6948.27
190.374	6908.88
190.45	6951.86
190.526	6983.91
190.601	6968.96
190.677	6978.47
190.753	7069.54
190.828	7089.18
190.904	7148.11
190.98	7204.3
191.055	7243.22
191.131	7210.01
191.207	7282.22
191.282	7313.73
191.358	7281.73
191.433	7227.73
191.509	7276.13
191.585	7274.35
191.66	7271.23
191.736	7303.76
191.811	7275.4
191.887	7332.8
191.963	7412.68
192.038	7424.17
192.114	7429.22
192.189	7442.72
192.265	7434.22
192.34	7359.53
192.416	7349.54
192.491	7333.86
192.567	7337.9
192.642	7348.29
192.718	7352.23
192.793	7308.68
192.869	7299.12
192.944	7308.82
193.02	7344.74
193.095	7358.15
193.171	7374.63
193.246	7377.57
193.322	7360.99
193.397	7359.26
193.473	7313.96
193.548	7254.54
193.624	7275.98
193.699	7271.42
193.775	7321.76
193.85	7315.14
193.925	7348.31
194.001	7352.63
194.076	7323.5
194.152	7285.66
194.227	7257.88
194.302	7222.09
194.378	7238.43
194.453	7224.5
194.529	7265.55
194.604	7211.81
194.679	7188.36
194.755	7123.18
194.83	7164.1
194.905	7160.31
194.981	7200.49
195.056	7175.7
195.131	7200.64
195.207	7199.15
195.282	7161.39
195.357	7098.02
195.433	7159.72
195.508	7115.88
195.583	7140.91
195.659	7187.83
195.734	7211.1
195.809	7208.22
195.884	7238.52
195.96	7242.22
196.035	7293.31
196.11	7277.58
196.185	7320.41
196.261	7331.12
196.336	7439.35
196.411	7388.43
196.486	7406.21
196.561	7377.22
196.637	7407.01
196.712	7459.63
196.787	7469.73
196.862	7527.93
196.937	7564.31
197.013	7581.1
197.088	7619.26
197.163	7690.35
197.238	7753.35
197.313	7752.24
197.388	7799.65
197.464	7907.26
197.539	7942.89
197.614	7925.88
197.689	7967.14
197.764	8024.64
197.839	8091.87
197.914	8069.88
197.989	8149.4
198.065	8194.27
198.14	8367.74
198.215	8458.04
198.29	8499.68
198.365	8540.19
198.44	8575.22
198.515	8669.89
198.59	8724.42
198.665	8813.88
198.74	8843.25
198.815	8842.05
198.89	8921.25
198.965	9025.25
199.04	9012.64
199.115	9063.56
199.19	9205.73
199.265	9217.09
199.34	9246.17
199.415	9370.1
199.49	9448.22
199.565	9474.94
199.64	9565.17
199.715	9551.87
199.79	9580.09
199.865	9597.91
199.94	9598.63
200.015	9709.21
200.09	9724.53
200.165	9747.74
200.24	9768.69
200.315	9898.65
200.39	9951.34
200.464	9973.83
200.539	9977.83
200.614	10026.9
200.689	10110.96
200.764	10135.44
200.839	10195.57
200.914	10213.1
200.989	10166.9
201.063	10216.71
201.138	10161.59
201.213	10153.93
201.288	10092.61
201.363	10113.76
201.438	10115.35
201.512	10169.33
201.587	10107.42
201.662	10125.59
201.737	10163.4
201.812	10193.99
201.886	10089.91
201.961	10126.14
202.036	10085.11
202.111	10077.69
202.186	9983.1
202.26	9923.45
202.335	9850.95
202.41	9828.03
202.485	9765.73
202.559	9702.4
202.634	9601.41
202.709	9633.46
202.784	9577.12
202.858	9576.3
202.933	9507.73
203.008	9478.45
203.082	9406.42
203.157	9404.3
203.232	9249.67
203.306	9177.66
203.381	9064.41
203.456	8985.4
203.53	8902.2
203.605	8833.6
203.68	8749.52
203.754	8724.42
203.829	8667.03
203.904	8596.29
203.978	8554.8
204.053	8571.88
204.127	8531.46
204.202	8534.5
204.277	8471.13
204.351	8443.89
204.426	8418.04
204.5	8387
204.575	8270.95
204.65	8309.21
204.724	8280.42
204.799	8312.53
204.873	8296.7
204.948	8296.46
205.022	8248.51
205.097	8218.18
205.171	8267.87
205.246	8293.76
205.32	8289.53
205.395	8290.06
205.469	8259.2
205.544	8279.41
205.618	8216.82
205.693	8253.05
205.767	8207.98
205.842	8288.19
205.916	8264.96
205.991	8225.27
206.065	8248.27
206.14	8299.89
206.214	8280.78
206.289	8254.35
206.363	8296.26
206.438	8307.09
206.512	8323.74
206.586	8392.18
206.661	8422.32
206.735	8345.38
206.81	8354.48
206.884	8408.21
206.958	8363.82
207.033	8422.58
207.107	8444.39
207.181	8556.3
207.256	8537.63
207.33	8603.45
207.405	8638.32
207.479	8699.86
207.553	8730.55
207.628	8663.47
207.702	8707.73
207.776	8688.19
207.851	8698.01
207.925	8749.77
207.999	8734.89
208.073	8733.55
208.148	8742.21
208.222	8704.61
208.296	8814
208.371	8860.04
208.445	8895.62
208.519	8995.04
208.593	9034.51
208.668	9019.15
208.742	9024.59
208.816	9026.37
208.89	9075.93
208.965	9071.59
209.039	9102.12
209.113	9159.65
209.187	9237.72
209.261	9218.08
209.336	9281.1
209.41	9350.06
209.484	9353.62
209.558	9432.83
209.632	9476.98
209.707	9517.24
209.781	9586.14
209.855	9638.3
209.929	9695.21
210.003	9716.02
210.077	9711.97
210.151	9879.56
210.226	10007.66
210.3	10101.44
210.374	10182.81
210.448	10190.91
210.522	10226.22
210.596	10264.23
210.67	10296.36
210.744	10457.95
210.818	10578.3
210.892	10655.39
210.966	10630.1
211.041	10681.85
211.115	10671.58
211.189	10746.5
211.263	10802.87
211.337	10824.11
211.411	10878.86
211.485	10863.29
211.559	10900.58
211.633	10913.39
211.707	10801.86
211.781	10817.82
211.855	10691.72
211.929	10660.85
212.003	10596.79
212.077	10630
212.151	10666.67
212.225	10698.71
212.299	10659.72
212.373	10614.91
212.447	10590.82
212.52	10693.68
212.594	10700.91
212.668	10734.25
212.742	10683.28
212.816	10660.53
212.89	10635.53
212.964	10620.93
213.038	10627.96
213.112	10662.27
213.186	10710.45
213.26	10624.78
213.333	10466.81
213.407	10478.56
213.481	10486.27
213.555	10523.49
213.629	10474.72
213.703	10410.54
213.777	10400.37
213.85	10327.23
213.924	10428.91
213.998	10424.52
214.072	10389.34
214.146	10330.47
214.219	10309.89
214.293	10285.13
214.367	10276.17
214.441	10306.96
214.515	10255.45
214.588	10155.49
214.662	10031.6
214.736	9941.87
214.81	9962.95
214.883	9982.31
214.957	9930.79
215.031	9867.58
215.105	9769.36
215.178	9700.25
215.252	9660.8
215.326	9550.61
215.4	9460.99
215.473	9275.39
215.547	9186.67
215.621	9118.7
215.694	9110.75
215.768	9011.95
215.842	8946.63
215.915	8872.47
215.989	8752.15
216.063	8694.45
216.136	8675.15
216.21	8644.88
216.284	8657.45
216.357	8626.6
216.431	8574.76
216.504	8571.83
216.578	8632.34
216.652	8634.79
216.725	8609.91
216.799	8611.98
216.873	8590.18
216.946	8600
217.02	8555.81
217.093	8514.81
217.167	8412.17
217.24	8330.15
217.314	8286.01
217.387	8239.9
217.461	8195.54
217.535	8216.71
217.608	8146.86
217.682	8117.99
217.755	8137.09
217.829	8076.5
217.902	8060.62
217.976	8039.75
218.049	7989.87
218.123	7909.25
218.196	7913.63
218.27	7876.83
218.343	7804.75
218.417	7801
218.49	7771.37
218.563	7816.24
218.637	7827.83
218.71	7901.96
218.784	7925.97
218.857	7966.31
218.931	7992.32
219.004	8001.89
219.077	8018.35
219.151	8041.62
219.224	8030.85
219.298	8017.38
219.371	8067.56
219.444	8023.04
219.518	8041.08
219.591	8059.4
219.665	8170.21
219.738	8181.18
219.811	8168.06
219.885	8210.29
219.958	8244.07
220.031	8247.1
220.105	8268.37
220.178	8276.21
220.251	8249.93
220.325	8277.37
220.398	8290.12
220.471	8312.24
220.544	8343.52
220.618	8318.63
220.691	8345.72
220.764	8364.24
220.838	8396.24
220.911	8371.84
220.984	8463.04
221.057	8493.64
221.131	8519.67
221.204	8419.34
221.277	8493.36
221.35	8620.61
221.424	8619.8
221.497	8633.95
221.57	8667.95
221.643	8704.35
221.716	8749.12
221.79	8748.92
221.863	8760.58
221.936	8772.37
222.009	8784.39
222.082	8818.72
222.155	8833.25
222.229	8900.95
222.302	8931.41
222.375	8934.11
222.448	8975.17
222.521	8980.61
222.594	8987.83
222.667	8960.36
222.74	9010.56
222.814	9003.04
222.887	8979.3
222.96	9030.91
223.033	9073.91
223.106	9095.47
223.179	9120.9
223.252	9137.18
223.325	9174.72
223.398	9181.8
223.471	9213.23
223.544	9237.92
223.617	9251.99
223.69	9273.74
223.763	9236.9
223.837	9262.95
223.91	9295.16
223.983	9247.94
224.056	9212.71
224.129	9235.48
224.202	9292.79
224.275	9283.79
224.348	9251.29
224.42	9220.81
224.493	9167.42
224.566	9142.09
224.639	9158.94
224.712	9131.01
224.785	9109.48
224.858	9096.19
224.931	9080.5
225.004	9037.32
225.077	9032.21
225.15	8939.9
225.223	8937.54
225.296	9014.95
225.369	8958.73
225.442	8920.5
225.514	8937.63
225.587	8961.41
225.66	8963.19
225.733	8965.45
225.806	8982.45
225.879	8980.91
225.952	8946.45
226.025	8982.7
226.097	9035.2
226.17	9027.35
226.243	8965.22
226.316	8965.17
226.389	8973.35
226.461	8993.58
226.534	9015.76
226.607	9008.4
226.68	9092.38
226.753	9089.49
226.825	9006.26
226.898	9062.05
226.971	9069.6
227.044	9087.61
227.117	9090.78
227.189	9109.66
227.262	9146.12
227.335	9152.43
227.407	9140.39
227.48	9172.54
227.553	9192.33
227.626	9167.04
227.698	9167.96
227.771	9203.37
227.844	9185.99
227.916	9204
227.989	9165.92
228.062	9158.94
228.134	9246.44
228.207	9236.28
228.28	9227.28
228.352	9237.77
228.425	9246.01
228.498	9293.3
228.57	9273.27
228.643	9335.11
228.716	9334.53
228.788	9319.99
228.861	9319.12
228.934	9391
229.006	9399.86
229.079	9399.48
229.151	9388.59
229.224	9360
229.296	9386.53
229.369	9492.26
229.442	9540.53
229.514	9522.1
229.587	9568.99
229.659	9490.78
229.732	9515.77
229.804	9555.88
229.877	9635.36
229.949	9665.08
230.022	9717.21
230.094	9723.9
230.167	9714.51
230.239	9669.68
230.312	9655.57
230.384	9729.33
230.457	9723.79
230.529	9729.09
230.602	9730.82
230.674	9740.84
230.747	9786.18
230.819	9819.66
230.892	9693.47
230.964	9688.51
231.037	9717.62
231.109	9708.38
231.181	9748.2
231.254	9708.71
231.326	9691.18
231.399	9666.08
231.471	9634.29
231.544	9554.41
231.616	9597.8
231.688	9600.64
231.761	9591.59
231.833	9583.31
231.905	9497.61
231.978	9493.08
232.05	9484.71
232.122	9489.09
232.195	9463.28
232.267	9501.33
232.339	9474.55
232.412	9543.78
232.484	9522.25
232.556	9493.76
232.629	9562.89
232.701	9583.36
232.773	9599.01
232.846	9595.25
232.918	9602.05
232.99	9624.35
233.062	9664.37
233.135	9678.53
233.207	9641.11
233.279	9685.69
233.351	9719.93
233.424	9723.11
233.496	9701.39
233.568	9784.86
233.64	9750.91
233.713	9773.11
233.785	9766.08
233.857	9793
233.929	9738.64
234.001	9815.39
234.074	9888.53
234.146	9814.19
234.218	9809.71
234.29	9807.26
234.362	9790.41
234.434	9744.55
234.507	9705.78
234.579	9652.37
234.651	9629.39
234.723	9668.31
234.795	9688.16
234.867	9679.63
234.939	9740.9
235.012	9758.77
235.084	9757.99
235.156	9797.15
235.228	9775.96
235.3	9760.21
235.372	9761.22
235.444	9821.41
235.516	9733.38
235.588	9742.05
235.66	9767.92
235.732	9741.52
235.804	9944.55
235.876	9991.54
235.948	10061.64
236.02	10081.87
236.092	10099.44
236.164	10118.32
236.236	10108.4
236.308	10104.93
236.38	10134.65
236.452	10107
236.524	10128.43
236.596	10198.02
236.668	10226.21
236.74	10249.71
236.812	10283.86
236.884	10318.7
236.956	10332.33
237.028	10322.03
237.1	10300.11
237.172	10371.37
237.244	10449.04
237.316	10327.71
237.388	10314.76
237.46	10281.94
237.532	10344.72
237.604	10336.34
237.675	10415.27
237.747	10466.48
237.819	10458.87
237.891	10464.03
237.963	10461.19
238.035	10454.59
238.107	10335.32
238.178	10400.72
238.25	10407.42
238.322	10500.14
238.394	10456.01
238.466	10464.49
238.538	10515.26
238.609	10563.53
238.681	10499.2
238.753	10475.25
238.825	10504.99
238.897	10537.45
238.968	10631.82
239.04	10613.99
239.112	10731.98
239.184	10691.01
239.255	10678.24
239.327	10711.96
239.399	10731.14
239.471	10783.46
239.542	10827.16
239.614	10901.6
239.686	10817.75
239.758	10873.31
239.829	10833.4
239.901	10893.14
239.973	10901.58
240.044	10932.75
240.116	10944.12
240.188	10968.02
240.259	10989.75
240.331	10967.49
240.403	11001.26
240.474	10950.8
240.546	10938.22
240.618	10868.35
240.689	10859.39
240.761	10888.78
240.833	10959.34
240.904	10964.78
240.976	10961.75
241.048	10971.24
241.119	11015.39
241.191	11063.04
241.262	11135.3
241.334	11142.04
241.405	11150.38
241.477	11155.34
241.549	11163.3
241.62	11193.61
241.692	11238.76
241.763	11299.69
241.835	11327.45
241.906	11344.46
241.978	11311.07
242.049	11381.23
242.121	11451.73
242.192	11522.09
242.264	11486.34
242.335	11427.93
242.407	11475.35
242.478	11477.71
242.55	11504.6
242.621	11480.07
242.693	11481.71
242.764	11474.09
242.836	11469.42
242.907	11504.6
242.979	11536.99
243.05	11563.78
243.122	11582.49
243.193	11578.39
243.264	11502.62
243.336	11503.97
243.407	11545.09
243.479	11628.71
243.55	11643.94
243.622	11658.25
243.693	11661.43
243.764	11728.71
243.836	11714.07
243.907	11701.58
243.978	11708.67
244.05	11734.17
244.121	11689.06
244.192	11730.31
244.264	11673.87
244.335	11689.92
244.407	11643.51
244.478	11662.55
244.549	11654.06
244.62	11608.9
244.692	11615.84
244.763	11661.87
244.834	11651.89
244.906	11632.61
244.977	11654.59
245.048	11714.56
245.119	11694.61
245.191	11667.66
245.262	11611.66
245.333	11686.93
245.405	11708.33
245.476	11735.47
245.547	11751.18
245.618	11807.18
245.689	11821.69
245.761	11861.99
245.832	11871.82
245.903	11916.84
245.974	11944.31
246.045	11961.57
246.117	12048.42
246.188	12021.68
246.259	12003.07
246.33	12024.71
246.401	12034.11
246.473	11994.44
246.544	11971.16
246.615	12031.46
246.686	12041.34
246.757	12108.67
246.828	12090.02
246.899	12162.23
246.97	12136.64
247.042	12127.33
247.113	12170.77
247.184	12260.91
247.255	12265.15
247.326	12287.86
247.397	12296.44
247.468	12309.55
247.539	12319.77
247.61	12276.62
247.681	12326.85
247.752	12388.74
247.823	12359.14
247.894	12372.93
247.965	12345.55
248.037	12340.92
248.108	12282.6
248.179	12289.64
248.25	12287.51
248.321	12317.3
248.392	12267.84
248.463	12350.6
248.534	12349.35
248.605	12367.28
248.675	12339.23
248.746	12348.87
248.817	12367.19
248.888	12380.78
248.959	12324
249.03	12351.67
249.101	12362.61
249.172	12352.34
249.243	12279.99
249.314	12351.24
249.385	12355.04
249.456	12392.64
249.527	12388.93
249.598	12413.61
249.669	12408.79
249.739	12421.03
249.81	12435.01
249.881	12387.68
249.952	12378.95
250.023	12372.59
250.094	12325.73
250.165	12290.06
250.235	12284.56
250.306	12291.41
250.377	12262.01
250.448	12292.32
250.519	12225.66
250.59	12287.07
250.66	12283.7
250.731	12358.51
250.802	12351.85
250.873	12379.67
250.944	12400.59
251.014	12387.09
251.085	12480.37
251.156	12511.8
251.227	12566.41
251.297	12626.48
251.368	12685.38
251.439	12729.39
251.51	12785.51
251.58	12765.55
251.651	12763.96
251.722	12821.71
251.792	12769.17
251.863	12776.11
251.934	12836.94
252.005	12951.14
252.075	12954.99
252.146	13004.4
252.217	13053.72
252.287	13102.6
252.358	13107.42
252.429	13173.51
252.499	13164.69
252.57	13178.04
252.641	13232.08
252.711	13242.11
252.782	13191.54
252.852	13267.66
252.923	13261.63
252.994	13275.42
253.064	13335.05
253.135	13320.44
253.205	13297.45
253.276	13372.65
253.347	13438.74
253.417	13413.67
253.488	13403.74
253.558	13386.82
253.629	13386.38
253.699	13397.71
253.77	13413.33
253.841	13404.99
253.911	13421.67
253.982	13443.31
254.052	13476.48
254.123	13476.62
254.193	13471.08
254.264	13608.7
254.334	13575.15
254.405	13548.98
254.475	13518.66
254.546	13525.11
254.616	13588.46
254.687	13618.54
254.757	13646.16
254.827	13652.28
254.898	13673.74
254.968	13678.17
255.039	13667.37
255.109	13709.46
255.18	13680.19
255.25	13617.33
255.321	13654.5
255.391	13614.25
255.461	13692.92
255.532	13602.87
255.602	13598.97
255.673	13552.02
255.743	13516.25
255.813	13440.9
255.884	13489.54
255.954	13523.96
256.024	13589.14
256.095	13590.78
256.165	13561.66
256.235	13582.82
256.306	13562.91
256.376	13620.04
256.446	13652.43
256.517	13684.35
256.587	13726.38
256.657	13742.1
256.728	13765.33
256.798	13771.45
256.868	13771.79
256.938	13743.25
257.009	13786.88
257.079	13816.38
257.149	13911.97
257.219	13848.63
257.29	13890.52
257.36	13834.17
257.43	13877.8
257.5	13813.01
257.571	13800.42
257.641	13831.13
257.711	13791.46
257.781	13823.42
257.852	13831.32
257.922	13769.43
257.992	13777
258.062	13777.53
258.132	13820.91
258.202	13824.77
258.273	13832.58
258.343	13899.25
258.413	13886.81
258.483	13894.71
258.553	13868.15
258.623	13840.29
258.693	13869.99
258.764	13937.14
258.834	14009.54
258.904	14027.72
258.974	14011.81
259.044	14027.23
259.114	14064.16
259.184	14096.99
259.254	14103.3
259.324	14054.23
259.394	14113.23
259.464	14187.08
259.535	14186.84
259.605	14178.41
259.675	14175.37
259.745	14221.89
259.815	14203.28
259.885	14206.41
259.955	14319.49
260.025	14310.38
260.095	14327.64
260.165	14359.26
260.235	14423.52
260.305	14404.19
260.375	14368.66
260.445	14463.67
260.515	14515.3
260.585	14560.52
260.655	14564.32
260.725	14609.73
260.795	14651.77
260.865	14717.52
260.934	14682.18
261.004	14714
261.074	14719.64
261.144	14782.5
261.214	14813.69
261.284	14809.16
261.354	14851.43
261.424	14810.61
261.494	14889.04
261.564	14890.68
261.634	14921.48
261.703	14855.54
261.773	14881.33
261.843	14915.7
261.913	14909.87
261.983	14863.78
262.053	14883.06
262.123	14889.23
262.192	14847.78
262.262	14878.58
262.332	14824.64
262.402	14860.07
262.472	14875.01
262.541	14826.28
262.611	14872.5
262.681	14844.45
262.751	14885.37
262.821	14891.83
262.89	14858
262.96	14877.57
263.03	14959.99
263.1	14979.66
263.169	15000.09
263.239	15036.97
263.309	15099.68
263.379	15129.03
263.448	15149.62
263.518	15170.01
263.588	15182.93
263.657	15257.88
263.727	15303.77
263.797	15318.66
263.867	15320.45
263.936	15267.66
264.006	15323.92
264.076	15317.8
264.145	15318.81
264.215	15311.77
264.285	15360.07
264.354	15314.13
264.424	15297.89
264.494	15253.45
264.563	15238.22
264.633	15313.61
264.702	15336.02
264.772	15277.31
264.842	15278.08
264.911	15313.37
264.981	15268.98
265.05	15282.38
265.12	15279
265.19	15289.08
265.259	15342.34
265.329	15384.32
265.398	15423.94
265.468	15522.9
265.537	15510.9
265.607	15543.14
265.676	15589.17
265.746	15608.69
265.815	15670.2
265.885	15680.47
265.955	15661.82
266.024	15673.38
266.094	15609.13
266.163	15667.79
266.232	15742.5
266.302	15745.54
266.371	15770.07
266.441	15800.48
266.51	15850.61
266.58	15852.25
266.649	15839.24
266.719	15881.51
266.788	15897.94
266.858	15966.91
266.927	15894.28
266.996	15928.65
267.066	15957.42
267.135	15919.15
267.205	15951.1
267.274	15977.85
267.343	16034.73
267.413	16054.98
267.482	16109.2
267.552	16176
267.621	16130.31
267.69	16082.69
267.76	16109.93
267.829	16135.04
267.898	16148.97
267.968	16125.88
268.037	16168.58
268.106	16220.49
268.176	16181.16
268.245	16199.19
268.314	16183.14
268.384	16244.69
268.453	16264.64
268.522	16297.85
268.592	16363.45
268.661	16350.72
268.73	16384.94
268.799	16370.53
268.869	16450.44
268.938	16402.49
269.007	16393.96
269.076	16416.37
269.146	16472.09
269.215	16508.19
269.284	16584.14
269.353	16588.33
269.422	16594.17
269.492	16584.57
269.561	16498.16
269.63	16545.34
269.699	16538.3
269.768	16563.9
269.838	16589.25
269.907	16633.73
269.976	16596.76
270.045	16540.18
270.114	16576.33
270.183	16573.48
270.253	16602.64
270.322	16547.02
270.391	16574.78
270.46	16643.22
270.529	16685.78
270.598	16721.83
270.667	16727.95
270.736	16698.93
270.806	16735.9
270.875	16801.93
270.944	16818.94
271.013	16949.94
271.082	16969.55
271.151	17008.49
271.22	16968.49
271.289	16974.03
271.358	16974.27
271.427	17013.22
271.496	17048.84
271.565	17051.05
271.634	17075.58
271.703	17205.65
271.772	17272.02
271.841	17292.79
271.91	17257.61
271.979	17279.54
272.048	17261.51
272.117	17306.81
272.186	17307.73
272.255	17353.9
272.324	17396.6
272.393	17430.81
272.462	17421.03
272.531	17448.69
272.6	17458.72
272.669	17523.78
272.738	17533.47
272.807	17564.7
272.876	17548.26
272.945	17698.28
273.013	17750.43
273.082	17809.56
273.151	17712.65
273.22	17743.54
273.289	17769.42
273.358	17865.13
273.427	17876.16
273.496	17932.84
273.564	17975.68
273.633	18036.78
273.702	18017.89
273.771	18027.34
273.84	18057.31
273.909	18095.58
273.977	18125.21
274.046	18139.19
274.115	18210.9
274.184	18209.07
274.253	18230.27
274.322	18315.81
274.39	18247.48
274.459	18251.91
274.528	18209.02
274.597	18237.6
274.665	18271.19
274.734	18338.94
274.803	18342.51
274.872	18370.03
274.94	18365.4
275.009	18506.36
275.078	18494.56
275.147	18532.19
275.215	18561.83
275.284	18632.43
275.353	18637.83
275.421	18610.46
275.49	18710.16
275.559	18710.26
275.627	18744.86
275.696	18768.66
275.765	18815.99
275.833	18831.5
275.902	18876.13
275.971	18961.09
276.039	19052.46
276.108	19117.13
276.177	19153.56
276.245	19162.18
276.314	19190.95
276.383	19249.7
276.451	19163.72
276.52	19217.4
276.588	19303.71
276.657	19365.97
276.725	19371.37
276.794	19418.79
276.863	19513.72
276.931	19466.06
277	19536.18
277.068	19613.57
277.137	19714.92
277.205	19747.74
277.274	19859.06
277.342	19928.6
277.411	19909.47
277.48	19914.43
277.548	19912.36
277.617	19949.95
277.685	19978.52
277.754	20035.34
277.822	20050.71
277.89	20140.55
277.959	20162.62
278.027	20137.8
278.096	20136.26
278.164	20274.92
278.233	20297.09
278.301	20293.91
278.37	20364.46
278.438	20360.61
278.507	20413.96
278.575	20368.03
278.643	20388.99
278.712	20366.82
278.78	20363.98
278.849	20446.77
278.917	20523.21
278.985	20558.68
279.054	20610.64
279.122	20689.39
279.191	20730.11
279.259	20751.51
279.327	20710.1
279.396	20811.56
279.464	20846.16
279.532	20914.31
279.601	20926.75
279.669	20951.37
279.737	21037.79
279.806	21100.16
279.874	21180.99
279.942	21209.47
280.011	21244.41
280.079	21316.47
280.147	21406.02
280.215	21468.53
280.284	21495.76
280.352	21485.16
280.42	21552.35
280.488	21569.27
280.557	21581.7
280.625	21636.46
280.693	21689.96
280.761	21756.48
280.83	21751.17
280.898	21835.43
280.966	21821.11
281.034	21757.82
281.102	21765.63
281.171	21784.96
281.239	21846.14
281.307	21857.85
281.375	21871.2
281.443	21987.86
281.512	22016.74
281.58	22083.27
281.648	22065.87
281.716	22101.34
281.784	22149.26
281.852	22167.43
281.92	22191.87
281.989	22271.57
282.057	22253.59
282.125	22445.04
282.193	22477.58
282.261	22518.7
282.329	22544.88
282.397	22602.58
282.465	22666.75
282.533	22760.41
282.601	22773.67
282.67	22739.96
282.738	22761.18
282.806	22838.31
282.874	22843.47
282.942	22895.94
283.01	22915.47
283.078	22990.92
283.146	23028.47
283.214	23105.72
283.282	23165.27
283.35	23262.01
283.418	23289.06
283.486	23349.66
283.554	23254.73
283.622	23290.36
283.69	23328.75
283.758	23359.8
283.826	23422.2
283.894	23501.53
283.962	23602.53
284.03	23697.53
284.098	23753.27
284.165	23781.19
284.233	23825.42
284.301	23852.33
284.369	23873.21
284.437	23898.87
284.505	23925.45
284.573	24024.32
284.641	24027.6
284.709	24096.29
284.777	24081.05
284.845	24152.79
284.912	24223.55
284.98	24287.27
285.048	24312.15
285.116	24379.93
285.184	24477.09
285.252	24521.52
285.319	24516.65
285.387	24533.68
285.455	24521.72
285.523	24591.19
285.591	24629.48
285.659	24676.52
285.726	24768.14
285.794	24766.6
285.862	24805.39
285.93	24850.25
285.997	24885.72
286.065	24916.5
286.133	24921.9
286.201	24964.35
286.269	24956.63
286.336	24969.13
286.404	24989.06
286.472	25074.32
286.539	25041.85
286.607	25026.75
286.675	25070.23
286.743	25138.31
286.81	25173.65
286.878	25268.04
286.946	25290.29
287.013	25335.11
287.081	25374.01
287.149	25363.58
287.216	25469.9
287.284	25494.41
287.352	25542.04
287.419	25563.43
287.487	25656.05
287.555	25721.47
287.622	25760.12
287.69	25818.29
287.758	25902.48
287.825	25937.66
287.893	25948.28
287.96	26011.92
288.028	26093.8
288.096	26148.41
288.163	26211.13
288.231	26212.58
288.298	26246.33
288.366	26330.98
288.433	26374.27
288.501	26402.03
288.569	26459.58
288.636	26477.64
288.704	26572.19
288.771	26644.04
288.839	26659.78
288.906	26677.46
288.974	26749.63
289.041	26787.34
289.109	26803.51
289.176	26869.17
289.244	26928.27
289.311	27011.98
289.379	27093.63
289.446	27144.07
289.514	27175.03
289.581	27211.94
289.649	27273.37
289.716	27316.22
289.783	27326.8
289.851	27427.89
289.918	27471.32
289.986	27554.95
290.053	27623.75
290.121	27667.29
290.188	27715.17
290.255	27865.21
290.323	27899.47
290.39	27934.17
290.458	28013.59
290.525	28109.7
290.592	28141.85
290.66	28200.7
290.727	28231.88
290.794	28331.21
290.862	28380.03
290.929	28451.13
290.996	28495.45
291.064	28570.32
291.131	28665.51
291.198	28759.68
291.266	28805.56
291.333	28861.04
291.4	28916.31
291.468	29014.53
291.535	29034.3
291.602	29101.95
291.669	29113.8
291.737	29180.17
291.804	29215.23
291.871	29305.99
291.938	29375.4
292.006	29513.94
292.073	29591.07
292.14	29669.91
292.207	29680.74
292.275	29731.24
292.342	29798.14
292.409	29932.5
292.476	30047.95
292.543	30064.45
292.611	30109.54
292.678	30196.63
292.745	30319.8
292.812	30402.71
292.879	30433.83
292.946	30493.37
293.014	30573.17
293.081	30652.15
293.148	30733.24
293.215	30823.5
293.282	30848.96
293.349	30918.96
293.416	30889.76
293.484	30984.88
293.551	31063.94
293.618	31161.7
293.685	31284.93
293.752	31313.78
293.819	31342.16
293.886	31344.19
293.953	31402.18
294.02	31488.17
294.087	31568.76
294.154	31590.06
294.221	31685.79
294.288	31740.32
294.356	31856.48
294.423	31927.68
294.49	31943.18
294.557	32031.32
294.624	32046.19
294.691	32161.99
294.758	32212.9
294.825	32283.18
294.892	32298.53
294.959	32348.39
295.026	32419.8
295.093	32437.1
295.16	32500.2
295.226	32546.13
295.293	32678.81
295.36	32749
295.427	32830.72
295.494	32903.62
295.561	32983.36
295.628	33111.07
295.695	33205.96
295.762	33258.64
295.829	33334.75
295.896	33438.98
295.963	33529.39
296.03	33623.89
296.096	33686.09
296.163	33767.63
296.23	33875.35
296.297	33972.38
296.364	34020.42
296.431	34090.29
296.498	34136.09
296.564	34261.85
296.631	34330.35
296.698	34333.16
296.765	34453.37
296.832	34472.57
296.899	34484.55
296.965	34591.43
297.032	34552.86
297.099	34662.93
297.166	34734.66
297.233	34774.53
297.299	34806.83
297.366	34857.38
297.433	34916.49
297.5	35005.32
297.566	35058.2
297.633	35112.97
297.7	35176.13
297.767	35220.31
297.833	35298.38
297.9	35362.88
297.967	35350.61
298.033	35442.36
298.1	35603.72
298.167	35621.67
298.234	35695.36
298.3	35792.06
298.367	35828.5
298.434	35907.9
298.5	35922.7
298.567	35962.92
298.634	36016.3
298.7	36132.86
298.767	36184.4
298.834	36280.05
298.9	36309.03
298.967	36333.58
299.033	36389.89
299.1	36496.68
299.167	36595.58
299.233	36621.89
299.3	36710.95
299.366	36817.75
299.433	36909.76
299.5	36861.21
299.566	36921.34
299.633	37008.87
299.699	37085.43
299.766	37123.73
299.832	37169.86
299.899	37240.75
299.965	37334.06
300.032	37373.77
300.099	37436.79
300.165	37516.91
300.232	37552.02
300.298	37599.45
300.365	37698.06
300.431	37765.17
300.498	37772.35
300.564	37839.7
300.631	37927.69
300.697	38022.59
300.763	38082.66
300.83	38119.67
300.896	38217.9
300.963	38313.14
301.029	38383.18
301.096	38437.92
301.162	38529.02
301.229	38575.11
301.295	38598.52
301.361	38656.42
301.428	38708.62
301.494	38701.68
301.561	38748.36
301.627	38810.73
301.693	38868.33
301.76	38940.81
301.826	38971.56
301.892	39061.71
301.959	39129.43
302.025	39165.04
302.092	39192.83
302.158	39262.1
302.224	39317.49
302.291	39332.55
302.357	39367.38
302.423	39397.12
302.49	39416.36
302.556	39500.42
302.622	39539.96
302.688	39621.98
302.755	39706.04
302.821	39778.52
302.887	39871.79
302.954	39914.99
303.02	39971.89
303.086	40037.87
303.152	40062.16
303.219	40089.52
303.285	40153.62
303.351	40225.45
303.417	40275.45
303.483	40297.07
303.55	40321.56
303.616	40362.43
303.682	40411.7
303.748	40424.38
303.815	40529.03
303.881	40622.04
303.947	40613.54
304.013	40679.68
304.079	40699.99
304.145	40685.85
304.212	40731.04
304.278	40751.69
304.344	40785.13
304.41	40805.15
304.476	40822.55
304.542	40861.53
304.608	40937.2
304.674	40928.64
304.741	40953.53
304.807	41012.35
304.873	41086.47
304.939	41192.34
305.005	41182.95
305.071	41214.64
305.137	41276.26
305.203	41225.76
305.269	41246.56
305.335	41339.51
305.401	41372.81
305.467	41404.06
305.533	41469.49
305.599	41546.2
305.666	41617.75
305.732	41664.86
305.798	41739.48
305.864	41858.93
305.93	41921.64
305.996	41965.88
306.062	42016.83
306.128	42052.08
306.194	42058.79
306.259	42085.97
306.325	42073.81
306.391	42154.46
306.457	42240.46
306.523	42287.13
306.589	42418.27
306.655	42449.73
306.721	42429.89
306.787	42431.93
306.853	42517.31
306.919	42508.17
306.985	42513.86
307.051	42538.42
307.117	42557.62
307.183	42587.14
307.248	42536.42
307.314	42584.81
307.38	42623.9
307.446	42688.14
307.512	42704.68
307.578	42763.03
307.644	42779.75
307.709	42839.28
307.775	42863.59
307.841	42878.03
307.907	42926.96
307.973	42891.94
308.039	42919.02
308.104	42975.34
308.17	43021.62
308.236	43013.5
308.302	43063.54
308.368	43073.7
308.433	43097.72
308.499	43121.94
308.565	43117.71
308.631	43183.94
308.696	43148.93
308.762	43154.71
308.828	43177.63
308.894	43141.3
308.959	43114.46
309.025	43138.87
309.091	43152.25
309.156	43166.06
309.222	43212.46
309.288	43205.85
309.354	43173.75
309.419	43212.38
309.485	43203.91
309.551	43253.62
309.616	43262.18
309.682	43288.35
309.748	43308.14
309.813	43344.42
309.879	43354.49
309.945	43366.41
310.01	43372.24
310.076	43422.09
310.141	43435.03
310.207	43416.11
310.273	43475.63
310.338	43530.25
310.404	43512.59
310.469	43506.61
310.535	43500.97
310.601	43467.07
310.666	43520.19
310.732	43604.96
310.797	43600.49
310.863	43609.53
310.928	43619.02
310.994	43659.64
311.059	43703.81
311.125	43733.43
311.191	43804.91
311.256	43804.52
311.322	43867.37
311.387	43840.72
311.453	44731.79
311.518	44746.53
311.584	44769
311.649	44818.67
311.715	44807
311.78	44860.21
311.846	44867.12
311.911	44942.04
311.976	44981.24
312.042	44959.94
312.107	44943.44
312.173	44953.46
312.238	44977.79
312.304	45006.83
312.369	45013.11
312.434	45002.94
312.5	45006.59
312.565	44925.62
312.631	44983.22
312.696	44986.82
312.761	45041.54
312.827	44184.72
312.892	44300.66
312.958	44342.79
313.023	44381.53
313.088	44434.9
313.154	44420.16
313.219	44432.18
313.284	44426.73
313.35	44451.2
313.415	44467.25
313.48	44492.94
313.546	44535.08
313.611	44600.67
313.676	44613.81
313.741	44619.65
313.807	44678.83
313.872	44735.47
313.937	44794.05
314.003	44854.54
314.068	44882.04
314.133	44936.69
314.198	44944.04
314.264	44899.29
314.329	44884.99
314.394	44889.9
314.459	44904.36
314.525	45006.69
314.59	45035.4
314.655	45031.36
314.72	45093.27
314.785	45132.54
314.851	45136.92
314.916	45111.67
314.981	45089.91
315.046	45083.34
315.111	45089.67
315.176	45076.47
315.242	45114.74
315.307	45140.97
315.372	45111.03
315.437	45112.35
315.502	45092.54
315.567	45156.3
315.632	45133.38
315.698	45183.85
315.763	45196.26
315.828	45191.93
315.893	45189.4
315.958	45188.67
316.023	45186.82
316.088	45141.12
316.153	45080.98
316.218	45083.26
316.283	45042.84
316.348	44993.35
316.413	45003.52
316.479	44961.05
316.544	44852.8
316.609	44751.39
316.674	44628.3
316.739	44513.35
316.804	44401.26
316.869	44283.59
316.934	44143.3
316.999	44042.17
317.064	43849.29
317.129	43686.07
317.194	43536.32
317.259	43351.17
317.324	43163.47
317.389	42988.64
317.454	42821.92
317.518	42683.88
317.583	42543.87
317.648	42441.8
317.713	42290.69
317.778	42044.25
317.843	41901.46
317.908	41738.43
317.973	41566.67
318.038	41424.63
318.103	41254.23
318.168	41102.05
318.233	40954.68
318.297	40746.37
318.362	40564.89
318.427	40391.91
318.492	40252.92
318.557	40057.41
318.622	39920.22
318.687	39795.46
318.751	39605.67
318.816	39441.65
318.881	39265.6
318.946	39038.11
319.011	38809.26
319.075	38601.53
319.14	38417.05
319.205	38203.5
319.27	38012.97
319.335	37784.76
319.399	37579.02
319.464	37419.09
319.529	37170.79
319.594	36961.44
319.658	36784.75
319.723	36561.19
319.788	36393.61
319.853	36120.41
319.917	35928.28
319.982	35658.02
320.047	35446.37
320.112	35281.81
320.176	35019.27
320.241	34813.7
320.306	34622.21
320.37	34392.18
320.435	34206.02
320.5	34031.22
320.564	33805.06
320.629	33578.11
320.694	33386.32
320.758	33154.47
320.823	32911.39
320.888	32731.79
320.952	32476.58
321.017	32238.33
321.082	32024
321.146	31796.34
321.211	31606.76
321.275	31374.1
321.34	31131.13
321.405	30886.38
321.469	30622.54
321.534	30397.94
321.598	30131.94
321.663	29933.84
321.727	29737.77
321.792	29468.41
321.857	29216.2
321.921	28990.15
321.986	28756.45
322.05	28469.54
322.115	28244.11
322.179	27996.1
322.244	27702.88
322.308	27488.27
322.373	27226.7
322.437	26984.88
322.502	26792.04
322.566	26530.36
322.631	26310.28
322.695	26071.01
322.76	25820.33
322.824	25611.07
322.889	25362.11
322.953	25108.71
323.018	24774.12
323.082	24450.06
323.146	24178.64
323.211	23896.44
323.275	23634.33
323.34	23382.07
323.404	23157.27
323.468	22895.27
323.533	22627.81
323.597	22374.39
323.662	22089.45
323.726	21868.17
323.79	21591.41
323.855	21257.77
323.919	20985.23
323.983	20725.99
324.048	20341.81
324.112	20505.05
324.177	19684.41
324.241	18609.49
324.305	17561.76
324.37	16530.25
324.434	15531.59
324.498	15255.13
324.562	14945.85
324.627	14598.09
324.691	14244.61
324.755	13846.81
324.82	13403.66
324.884	12948.03
324.948	12471.27
325.012	11899.35
325.077	11178.84
