Data from 20250701_urea_2M_exp3_MAYP1162681_05-29-48-902.txt Node
Date: Wed Jul 02 05:29:48 BST 2025
User: adleo
Spectrometer: MAYP116268
Trigger mode: 0
Integration Time (sec): 4.000000E0
Scans to average: 1
Electric dark correction enabled: true
Nonlinearity correction enabled: true
Boxcar width: 10
XAxis mode: Wavelengths
Number of Pixels in Spectrum: 2068
>>>>>Begin Spectral Data<<<<<
179.565	3570.16
179.642	3757.65
179.718	3910.49
179.795	4039.12
179.871	4149.53
179.948	4207.7
180.024	4279.21
180.101	4357.65
180.177	4411.2
180.254	4492.73
180.33	4569.32
180.407	4828.25
180.483	5106.04
180.56	5389.58
180.636	5643.7
180.712	5604.93
180.789	5636.34
180.865	5675.68
180.942	5706.4
181.018	5744.72
181.095	5791.84
181.171	5811.31
181.248	5814.67
181.324	5866.55
181.4	5892.12
181.477	5925.95
181.553	5971.87
181.63	6037.52
181.706	6091.22
181.782	6118.79
181.859	6112.94
181.935	6128.01
182.011	6113.33
182.088	6166.89
182.164	6230.9
182.24	6282.22
182.317	6304.44
182.393	6300.74
182.469	6346.43
182.546	6392.41
182.622	6411.08
182.698	6398.7
182.775	6434.79
182.851	6478.62
182.927	6447.75
183.003	6432.2
183.08	6416.46
183.156	6449.49
183.232	6443.58
183.308	6401.67
183.385	6421.25
183.461	6476.75
183.537	6478.58
183.613	6522.79
183.69	6492.07
183.766	6456.52
183.842	6477.79
183.918	6500.59
183.995	6543.46
184.071	6563.01
184.147	6549.14
184.223	6512.72
184.299	6555.95
184.375	6517.07
184.452	6545.03
184.528	6671.17
184.604	6706.3
184.68	6747.02
184.756	6767.34
184.832	6778.77
184.908	6793.6
184.985	6794.94
185.061	6747.45
185.137	6776.7
185.213	6739.88
185.289	6749.95
185.365	6728.26
185.441	6727.82
185.517	6773.53
185.593	6763.25
185.669	6749.46
185.745	6779.53
185.822	6836.36
185.898	6804.03
185.974	6840.55
186.05	6814.08
186.126	6737.31
186.202	6714.12
186.278	6699.67
186.354	6668.54
186.43	6689.01
186.506	6687.23
186.582	6684.02
186.658	6704.66
186.734	6642.11
186.81	6649.4
186.886	6657.71
186.962	6698.91
187.038	6683.35
187.114	6653.93
187.19	6679.97
187.266	6653.56
187.341	6652.07
187.417	6625.23
187.493	6626.24
187.569	6634.35
187.645	6611.88
187.721	6575.04
187.797	6605.38
187.873	6621.9
187.949	6602.51
188.025	6583.58
188.101	6591.55
188.176	6614.45
188.252	6596.88
188.328	6621.45
188.404	6626.15
188.48	6609.69
188.556	6583.32
188.632	6580.44
188.707	6581.4
188.783	6568.95
188.859	6546.65
188.935	6510.82
189.011	6537.66
189.086	6522.73
189.162	6494.64
189.238	6484.41
189.314	6477.02
189.39	6456.23
189.465	6424.34
189.541	6475.92
189.617	6423.21
189.693	6405.88
189.768	6413.96
189.844	6497.51
189.92	6468.72
189.996	6493.5
190.071	6533.74
190.147	6528.17
190.223	6558.1
190.298	6535.43
190.374	6493.03
190.45	6535.12
190.526	6565.42
190.601	6547.8
190.677	6544.97
190.753	6635.22
190.828	6650.43
190.904	6697.74
190.98	6751.26
191.055	6793.86
191.131	6772.34
191.207	6845.33
191.282	6878.45
191.358	6844.36
191.433	6797.1
191.509	6841.3
191.585	6832.51
191.66	6827.75
191.736	6857.96
191.811	6828.13
191.887	6878.39
191.963	6953.47
192.038	6971.05
192.114	6972.73
192.189	6982
192.265	6974.27
192.34	6902.03
192.416	6893.43
192.491	6881.71
192.567	6879.69
192.642	6882.38
192.718	6884.01
192.793	6839.53
192.869	6827.33
192.944	6838.61
193.02	6864.13
193.095	6880.51
193.171	6895.64
193.246	6900.3
193.322	6887.57
193.397	6888.97
193.473	6847.25
193.548	6791.32
193.624	6811.65
193.699	6806.03
193.775	6858.8
193.85	6864.27
193.925	6895.84
194.001	6901.17
194.076	6876.19
194.152	6849.52
194.227	6825.06
194.302	6786.95
194.378	6800.92
194.453	6789.69
194.529	6828.65
194.604	6776.43
194.679	6753.33
194.755	6691.79
194.83	6730.77
194.905	6727.75
194.981	6761.71
195.056	6737.42
195.131	6757.25
195.207	6746.1
195.282	6715.65
195.357	6653.76
195.433	6703.32
195.508	6666.48
195.583	6687.32
195.659	6737.86
195.734	6754.25
195.809	6751.65
195.884	6785.4
195.96	6789.43
196.035	6839.19
196.11	6824.77
196.185	6860.65
196.261	6875.15
196.336	6983.95
196.411	6934.54
196.486	6950.25
196.561	6925.17
196.637	6955.95
196.712	7007.34
196.787	7019.02
196.862	7065.03
196.937	7097.41
197.013	7119.18
197.088	7153.05
197.163	7228.82
197.238	7285.25
197.313	7284.34
197.388	7332.73
197.464	7432.51
197.539	7468.65
197.614	7449.23
197.689	7490.38
197.764	7549.96
197.839	7613.89
197.914	7587.73
197.989	7662.35
198.065	7706.38
198.14	7878.44
198.215	7962.98
198.29	8002.91
198.365	8043.02
198.44	8084.38
198.515	8180.59
198.59	8229.61
198.665	8312.16
198.74	8335.6
198.815	8338.92
198.89	8416.5
198.965	8513.29
199.04	8499.62
199.115	8552.15
199.19	8687.92
199.265	8699.94
199.34	8731.9
199.415	8843.36
199.49	8917.07
199.565	8944.79
199.64	9025.79
199.715	9007.39
199.79	9026.26
199.865	9042.29
199.94	9042.68
200.015	9147.54
200.09	9161.98
200.165	9176.95
200.24	9195.15
200.315	9323.63
200.39	9370.34
200.464	9394.61
200.539	9400.77
200.614	9455.27
200.689	9531.21
200.764	9551.97
200.839	9609.15
200.914	9622.78
200.989	9591.75
201.063	9640.87
201.138	9586.5
201.213	9581.97
201.288	9520.87
201.363	9542.69
201.438	9544.27
201.512	9595.54
201.587	9534.04
201.662	9541.64
201.737	9578.24
201.812	9609.4
201.886	9503.7
201.961	9530.87
202.036	9490.04
202.111	9482.43
202.186	9382.77
202.26	9326.37
202.335	9261.12
202.41	9239.94
202.485	9184.3
202.559	9113.73
202.634	9019.99
202.709	9054
202.784	8995.13
202.858	8995.95
202.933	8938.52
203.008	8920.18
203.082	8856.22
203.157	8852.94
203.232	8715.55
203.306	8655.81
203.381	8547.98
203.456	8467.76
203.53	8399.95
203.605	8331.81
203.68	8246.47
203.754	8225.71
203.829	8171.42
203.904	8105.43
203.978	8070.2
204.053	8085.45
204.127	8041.07
204.202	8033.42
204.277	7967.15
204.351	7947.52
204.426	7917.6
204.5	7881.47
204.575	7764.8
204.65	7796.8
204.724	7772.59
204.799	7795.03
204.873	7779.68
204.948	7776.41
205.022	7740.6
205.097	7704.55
205.171	7748.49
205.246	7780.97
205.32	7773.42
205.395	7774.96
205.469	7743.01
205.544	7758.07
205.618	7700.79
205.693	7742.97
205.767	7703.88
205.842	7776.65
205.916	7750.16
205.991	7725.11
206.065	7745.45
206.14	7798.58
206.214	7782.5
206.289	7754.31
206.363	7796.15
206.438	7804.23
206.512	7826.69
206.586	7888.23
206.661	7918.6
206.735	7847.66
206.81	7848.96
206.884	7900.88
206.958	7851.85
207.033	7908.13
207.107	7930.36
207.181	8028.13
207.256	8010.52
207.33	8071.06
207.405	8113.04
207.479	8180
207.553	8204.86
207.628	8146.84
207.702	8179.97
207.776	8153.81
207.851	8164.53
207.925	8216.08
207.999	8202.75
208.073	8196.26
208.148	8203.52
208.222	8161.8
208.296	8268.54
208.371	8316.97
208.445	8354.26
208.519	8451.47
208.593	8486.39
208.668	8473.01
208.742	8485.25
208.816	8486.5
208.89	8533.67
208.965	8528.81
209.039	8555.14
209.113	8613.37
209.187	8679.47
209.261	8671.72
209.336	8744.44
209.41	8813.46
209.484	8809.32
209.558	8882.73
209.632	8925.75
209.707	8969.51
209.781	9044.54
209.855	9096.5
209.929	9154.45
210.003	9172.22
210.077	9173.37
210.151	9337.26
210.226	9447.94
210.3	9536.2
210.374	9616.68
210.448	9629.54
210.522	9666.63
210.596	9700.72
210.67	9725.91
210.744	9886.24
210.818	9995.72
210.892	10055.01
210.966	10030.99
211.041	10086.62
211.115	10074.09
211.189	10153.81
211.263	10200.57
211.337	10220.76
211.411	10264.79
211.485	10249.32
211.559	10287.85
211.633	10295.07
211.707	10188.53
211.781	10211.37
211.855	10088.49
211.929	10062.92
212.003	9997.83
212.077	10029.2
212.151	10057.14
212.225	10086.05
212.299	10044.12
212.373	9997.01
212.447	9984.2
212.52	10083.24
212.594	10090.42
212.668	10123.6
212.742	10071.48
212.816	10057.12
212.89	10032.56
212.964	10022.83
213.038	10022.54
213.112	10064.89
213.186	10112.76
213.26	10031.41
213.333	9879.02
213.407	9890.86
213.481	9889.66
213.555	9926.52
213.629	9876.32
213.703	9816.5
213.777	9804.74
213.85	9733.6
213.924	9835.73
213.998	9824.12
214.072	9780.71
214.146	9727.1
214.219	9713.9
214.293	9693
214.367	9679.95
214.441	9701.48
214.515	9651.43
214.588	9563.44
214.662	9434.73
214.736	9353.74
214.81	9370.86
214.883	9383.42
214.957	9340.35
215.031	9284.82
215.105	9196.79
215.178	9131.07
215.252	9097.23
215.326	8998.97
215.4	8917.85
215.473	8739.06
215.547	8651.92
215.621	8591.96
215.694	8581.95
215.768	8477.7
215.842	8406.59
215.915	8338.71
215.989	8228.25
216.063	8168.71
216.136	8141.48
216.21	8113.63
216.284	8119.16
216.357	8092.32
216.431	8050.9
216.504	8045.8
216.578	8094.45
216.652	8102.62
216.725	8077.65
216.799	8082.8
216.873	8061.02
216.946	8071.16
217.02	8034.25
217.093	8009.14
217.167	7913.72
217.24	7835.01
217.314	7803.91
217.387	7765.81
217.461	7719.78
217.535	7741.23
217.608	7683.92
217.682	7661.99
217.755	7674.49
217.829	7621.05
217.902	7606.05
217.976	7592.3
218.049	7544.7
218.123	7474.7
218.196	7466.58
218.27	7433.7
218.343	7363.48
218.417	7362.03
218.49	7335.11
218.563	7378.23
218.637	7384.34
218.71	7453.77
218.784	7480.5
218.857	7511.31
218.931	7525.15
219.004	7533.46
219.077	7548.67
219.151	7570.73
219.224	7562.12
219.298	7552.45
219.371	7595.4
219.444	7555.81
219.518	7559.84
219.591	7575.37
219.665	7683.93
219.738	7700.85
219.811	7683.46
219.885	7727.16
219.958	7755.88
220.031	7766.93
220.105	7789.78
220.178	7797.76
220.251	7772.41
220.325	7794.3
220.398	7818.15
220.471	7839.35
220.544	7876.14
220.618	7852.19
220.691	7874.88
220.764	7895.71
220.838	7923.17
220.911	7904.79
220.984	7996.25
221.057	8032.75
221.131	8056.36
221.204	7956.5
221.277	8027.27
221.35	8147.67
221.424	8144.4
221.497	8156.62
221.57	8172.87
221.643	8200.4
221.716	8244.24
221.79	8247.12
221.863	8254
221.936	8256.51
222.009	8276.08
222.082	8301.63
222.155	8310.82
222.229	8369.15
222.302	8397.05
222.375	8406.24
222.448	8453.69
222.521	8456.43
222.594	8457.73
222.667	8428.35
222.74	8481.61
222.814	8476.21
222.887	8456.04
222.96	8505.08
223.033	8550.47
223.106	8578.42
223.179	8605.19
223.252	8612.12
223.325	8644.11
223.398	8663.18
223.471	8689.45
223.544	8713.17
223.617	8723.85
223.69	8750.07
223.763	8723.02
223.837	8743.67
223.91	8776.25
223.983	8718.37
224.056	8684.98
224.129	8703.6
224.202	8765.31
224.275	8752.41
224.348	8714.92
224.42	8684.79
224.493	8626.61
224.566	8600.23
224.639	8614.71
224.712	8589.63
224.785	8581.11
224.858	8573.26
224.931	8553.96
225.004	8522.59
225.077	8515.42
225.15	8433.49
225.223	8431.86
225.296	8509.34
225.369	8455.59
225.442	8417.72
225.514	8442.87
225.587	8460.05
225.66	8470.97
225.733	8473.04
225.806	8482.86
225.879	8480.22
225.952	8453.85
226.025	8508.18
226.097	8556.43
226.17	8552.87
226.243	8491.09
226.316	8483.73
226.389	8489.94
226.461	8508.52
226.534	8521.99
226.607	8516.6
226.68	8595.06
226.753	8588.08
226.825	8504.06
226.898	8560.69
226.971	8564.83
227.044	8581.96
227.117	8585.66
227.189	8606.12
227.262	8640.06
227.335	8659.99
227.407	8659.32
227.48	8690.59
227.553	8694.92
227.626	8674.02
227.698	8676.81
227.771	8715.29
227.844	8699.55
227.916	8718.47
227.989	8685.11
228.062	8685.26
228.134	8772.78
228.207	8773.94
228.28	8764.12
228.352	8775.19
228.425	8776.54
228.498	8821.6
228.57	8802.2
228.643	8866.67
228.716	8868.84
228.788	8852.85
228.861	8845.97
228.934	8904.59
229.006	8909.5
229.079	8915.37
229.151	8909.55
229.224	8876.78
229.296	8899.36
229.369	8994.65
229.442	9042.71
229.514	9024.77
229.587	9069.15
229.659	8989.03
229.732	9000.35
229.804	9049.87
229.877	9133.14
229.949	9166.7
230.022	9220.36
230.094	9216.95
230.167	9197.49
230.239	9147
230.312	9137.75
230.384	9202.34
230.457	9199.01
230.529	9211.19
230.602	9212.68
230.674	9220.73
230.747	9265.04
230.819	9299.27
230.892	9185.41
230.964	9179.43
231.037	9205.37
231.109	9193.67
231.181	9232.75
231.254	9199.39
231.326	9182.39
231.399	9148.43
231.471	9122.19
231.544	9043.59
231.616	9093.02
231.688	9103.57
231.761	9095.1
231.833	9082.01
231.905	8999.28
231.978	8996.68
232.05	8984.79
232.122	8984.07
232.195	8954.31
232.267	8994.57
232.339	8969.24
232.412	9039.41
232.484	9016.3
232.556	8991.62
232.629	9059.72
232.701	9077.82
232.773	9089.42
232.846	9082.64
232.918	9095.84
232.99	9109.17
233.062	9152.12
233.135	9165.65
233.207	9128.92
233.279	9179.88
233.351	9211.84
233.424	9217.91
233.496	9204.38
233.568	9281.18
233.64	9248.93
233.713	9271.12
233.785	9261.3
233.857	9280.99
233.929	9226.6
234.001	9290.23
234.074	9358.24
234.146	9289.65
234.218	9293.55
234.29	9296.3
234.362	9278.11
234.434	9226.96
234.507	9187.05
234.579	9137.75
234.651	9114.4
234.723	9144.87
234.795	9155.37
234.867	9147.23
234.939	9204.82
235.012	9217.72
235.084	9225.19
235.156	9260.91
235.228	9241.22
235.3	9230.34
235.372	9236.79
235.444	9296.48
235.516	9220.53
235.588	9225.15
235.66	9237.62
235.732	9206.22
235.804	9397.31
235.876	9445.79
235.948	9509.6
236.02	9535.79
236.092	9548.49
236.164	9562.02
236.236	9556.63
236.308	9556.24
236.38	9592.41
236.452	9573.58
236.524	9587.06
236.596	9648.69
236.668	9681.25
236.74	9705.71
236.812	9731.23
236.884	9762.01
236.956	9774.49
237.028	9768.28
237.1	9755.47
237.172	9817.99
237.244	9896.69
237.316	9780.1
237.388	9759.74
237.46	9740.13
237.532	9794.84
237.604	9783.68
237.675	9856.75
237.747	9903.38
237.819	9892.4
237.891	9890.57
237.963	9884.31
238.035	9888.45
238.107	9775.14
238.178	9835.12
238.25	9844.8
238.322	9933.32
238.394	9888.52
238.466	9887.08
238.538	9931.28
238.609	9969.23
238.681	9922.12
238.753	9902.8
238.825	9922.99
238.897	9958.48
238.968	10039.77
239.04	10022.14
239.112	10140.63
239.184	10100.16
239.255	10100.78
239.327	10136.61
239.399	10162.63
239.471	10210.6
239.542	10239.26
239.614	10314.36
239.686	10233.66
239.758	10282.65
239.829	10249.4
239.901	10321.61
239.973	10343.62
240.044	10374.36
240.116	10393
240.188	10411.01
240.259	10421.85
240.331	10413.66
240.403	10449.6
240.474	10402.9
240.546	10396.98
240.618	10332.41
240.689	10333.81
240.761	10349.47
240.833	10409.36
240.904	10408.3
240.976	10408.2
241.048	10424.34
241.119	10450.22
241.191	10495.12
241.262	10560.37
241.334	10563.74
241.405	10560.9
241.477	10557.48
241.549	10563.26
241.62	10575.69
241.692	10625.51
241.763	10684.31
241.835	10703.05
241.906	10720.35
241.978	10686.87
242.049	10754.22
242.121	10815.94
242.192	10878.49
242.264	10846.06
242.335	10807.95
242.407	10852.47
242.478	10852.61
242.55	10877.29
242.621	10858.06
242.693	10862.39
242.764	10848.17
242.836	10852.32
242.907	10881.23
242.979	10909.85
243.05	10940.84
243.122	10970.38
243.193	10964.12
243.264	10891.16
243.336	10896.27
243.407	10933.47
243.479	11016.3
243.55	11028.02
243.622	11042.18
243.693	11044.98
243.764	11109.79
243.836	11082.33
243.907	11073.37
243.978	11077.17
244.05	11101.22
244.121	11063.74
244.192	11098.48
244.264	11055.06
244.335	11063.88
244.407	11013.23
244.478	11035.21
244.549	11023.16
244.62	10979.5
244.692	10979.45
244.763	11024.41
244.834	11016.07
244.906	10984.36
244.977	10999.83
245.048	11047.17
245.119	11021.67
245.191	10996.37
245.262	10935.27
245.333	11011.4
245.405	11024.03
245.476	11055.06
245.547	11075.16
245.618	11132.5
245.689	11152.4
245.761	11187.82
245.832	11192.16
245.903	11243.82
245.974	11272.98
246.045	11284.83
246.117	11366.86
246.188	11351.97
246.259	11335.54
246.33	11347.44
246.401	11361.61
246.473	11329.07
246.544	11318.71
246.615	11379.54
246.686	11382.04
246.757	11465.26
246.828	11437.84
246.899	11511.88
246.97	11484.75
247.042	11468.84
247.113	11514.15
247.184	11592.82
247.255	11585.26
247.326	11617.36
247.397	11623.62
247.468	11625.6
247.539	11642.32
247.61	11596.58
247.681	11640
247.752	11697.4
247.823	11677.11
247.894	11698.13
247.965	11672.49
248.037	11655.91
248.108	11596.96
248.179	11604.72
248.25	11589.06
248.321	11620.38
248.392	11574.44
248.463	11655.65
248.534	11654.59
248.605	11665.97
248.675	11646.49
248.746	11667.31
248.817	11682.01
248.888	11698.55
248.959	11647.7
249.03	11669.49
249.101	11688.67
249.172	11669.15
249.243	11596.96
249.314	11657.4
249.385	11661.54
249.456	11689.73
249.527	11686.21
249.598	11716.19
249.669	11715.9
249.739	11731.37
249.81	11745.93
249.881	11701.69
249.952	11691.76
250.023	11690.17
250.094	11629.87
250.165	11590.87
250.235	11586.68
250.306	11588.22
250.377	11555.73
250.448	11578.58
250.519	11513.51
250.59	11567.11
250.66	11577.23
250.731	11650.05
250.802	11646.53
250.873	11663.64
250.944	11683.79
251.014	11679.07
251.085	11767.42
251.156	11796.97
251.227	11845.65
251.297	11896.36
251.368	11947.69
251.439	11986.35
251.51	12036.14
251.58	12028.43
251.651	12027.42
251.722	12083.87
251.792	12035.96
251.863	12049.88
251.934	12120.89
252.005	12236.13
252.075	12235.84
252.146	12279.37
252.217	12325.3
252.287	12372.11
252.358	12371.72
252.429	12454.01
252.499	12448.9
252.57	12455.55
252.641	12500.43
252.711	12507.52
252.782	12465.34
252.852	12540.49
252.923	12543.19
252.994	12561.12
253.064	12617.8
253.135	12605.51
253.205	12580.69
253.276	12655.83
253.347	12718.01
253.417	12693.48
253.488	12663.3
253.558	12654.43
253.629	12650.29
253.699	12655.64
253.77	12682.73
253.841	12688.03
253.911	12690.15
253.982	12709.96
254.052	12735.22
254.123	12746.6
254.193	12752.14
254.264	12890.73
254.334	12857.66
254.405	12824.84
254.475	12789.07
254.546	12792.25
254.616	12856.41
254.687	12887.45
254.757	12912.18
254.827	12907.8
254.898	12928.19
254.968	12944.72
255.039	12926.36
255.109	12966.99
255.18	12939.56
255.25	12869.28
255.321	12895.26
255.391	12847.88
255.461	12928.14
255.532	12851.01
255.602	12840.98
255.673	12783.09
255.743	12736.04
255.813	12663.93
255.884	12709.05
255.954	12745.97
256.024	12813.13
256.095	12808.88
256.165	12773.69
256.235	12789.55
256.306	12776.83
256.376	12817.42
256.446	12853.76
256.517	12891.85
256.587	12931.38
256.657	12960.01
256.728	12984.98
256.798	13001.51
256.868	13005.03
256.938	12978.08
257.009	13029.38
257.079	13064.08
257.149	13163.29
257.219	13105.25
257.29	13143.42
257.36	13090.35
257.43	13128.72
257.5	13061.14
257.571	13050.2
257.641	13088.28
257.711	13046.58
257.781	13069.33
257.852	13086.93
257.922	13020.16
257.992	13027.68
258.062	13023.34
258.132	13062.25
258.202	13055.84
258.273	13059.21
258.343	13134.85
258.413	13124.77
258.483	13130.27
258.553	13097
258.623	13066.54
258.693	13103.75
258.764	13166.28
258.834	13235.35
258.904	13245.43
258.974	13239.64
259.044	13247.98
259.114	13274.4
259.184	13308.77
259.254	13322.51
259.324	13269.82
259.394	13328.78
259.464	13404.22
259.535	13411.16
259.605	13405.95
259.675	13403.11
259.745	13439.46
259.815	13413.86
259.885	13411.11
259.955	13514.27
260.025	13513.55
260.095	13528.15
260.165	13551.24
260.235	13616.71
260.305	13599.4
260.375	13571.25
260.445	13655.08
260.515	13718.18
260.585	13762.77
260.655	13769.91
260.725	13815.65
260.795	13860.44
260.865	13922.77
260.934	13888.11
261.004	13915.68
261.074	13917.13
261.144	13984.81
261.214	14029.25
261.284	14025.69
261.354	14066.18
261.424	14018.46
261.494	14084.55
261.564	14094
261.634	14123.21
261.703	14051.53
261.773	14078.96
261.843	14115.74
261.913	14108.32
261.983	14057.07
262.053	14079.97
262.123	14079.25
262.192	14036.54
262.262	14068.59
262.332	14022.8
262.402	14057.99
262.472	14064.16
262.541	14007.57
262.611	14047.14
262.681	14015.91
262.751	14060.11
262.821	14063.92
262.89	14036.25
262.96	14066.23
263.03	14141.34
263.1	14162.74
263.169	14188.87
263.239	14220.78
263.309	14281.56
263.379	14311.98
263.448	14333.87
263.518	14355.56
263.588	14372.48
263.657	14443.39
263.727	14483.98
263.797	14503.64
263.867	14498.44
263.936	14462.77
264.006	14528.28
264.076	14524.04
264.145	14523.7
264.215	14510.64
264.285	14556.96
264.354	14519.02
264.424	14497.19
264.494	14443.73
264.563	14434.62
264.633	14510.01
264.702	14533.87
264.772	14476.7
264.842	14478.63
264.911	14505.58
264.981	14468.75
265.05	14482.63
265.12	14477.04
265.19	14487.79
265.259	14528.47
265.329	14568
265.398	14598.76
265.468	14693.91
265.537	14691.35
265.607	14721.1
265.676	14766.46
265.746	14786.41
265.815	14846.72
265.885	14859.01
265.955	14852.6
266.024	14852.31
266.094	14790.56
266.163	14847.29
266.232	14919.98
266.302	14926.73
266.371	14957.63
266.441	14976.48
266.51	15019.82
266.58	15024.35
266.649	15008.63
266.719	15056.11
266.788	15081.08
266.858	15153.24
266.927	15078.57
266.996	15103.44
267.066	15139.16
267.135	15109.71
267.205	15153.57
267.274	15171.02
267.343	15222.65
267.413	15238.22
267.482	15297.46
267.552	15366.68
267.621	15321.27
267.69	15283.43
267.76	15316.98
267.829	15340.51
267.898	15366.82
267.968	15345.66
268.037	15392.08
268.106	15439.08
268.176	15404.23
268.245	15414.35
268.314	15403.51
268.384	15468.87
268.453	15491.57
268.522	15514.42
268.592	15578.96
268.661	15559.97
268.73	15598.39
268.799	15589.86
268.869	15679.75
268.938	15639.26
269.007	15625.09
269.076	15649.72
269.146	15701.78
269.215	15718.26
269.284	15784.54
269.353	15774.41
269.422	15794.22
269.492	15781.02
269.561	15711.99
269.63	15750.65
269.699	15743.52
269.768	15765.21
269.838	15784.34
269.907	15828.2
269.976	15810.9
270.045	15751.76
270.114	15785.64
270.183	15780
270.253	15808.34
270.322	15755.76
270.391	15781.11
270.46	15850.95
270.529	15897.07
270.598	15931.92
270.667	15947.68
270.736	15926.43
270.806	15966.87
270.875	16022.78
270.944	16041.09
271.013	16163.13
271.082	16192.92
271.151	16232.63
271.22	16192.34
271.289	16207.23
271.358	16214.51
271.427	16246.56
271.496	16283
271.565	16282.95
271.634	16313.95
271.703	16444.79
271.772	16506.97
271.841	16525.24
271.91	16489.91
271.979	16512.61
272.048	16489.81
272.117	16537.96
272.186	16537.43
272.255	16583.17
272.324	16614.35
272.393	16653
272.462	16644.09
272.531	16662.45
272.6	16683.46
272.669	16760.43
272.738	16775.28
272.807	16810.41
272.876	16787.76
272.945	16920.78
273.013	16976.68
273.082	17038.76
273.151	16946.08
273.22	16984.01
273.289	17007.05
273.358	17098.81
273.427	17105.37
273.496	17158.67
273.564	17185.66
273.633	17236.07
273.702	17225.08
273.771	17250.91
273.84	17278.05
273.909	17326.29
273.977	17367.73
274.046	17375.97
274.115	17430.05
274.184	17420.26
274.253	17433.51
274.322	17518.44
274.39	17469.28
274.459	17470.2
274.528	17431.45
274.597	17465.81
274.665	17501.57
274.734	17575.3
274.803	17580.85
274.872	17609.18
274.94	17604.32
275.009	17836.86
275.078	17843.94
275.147	17883.17
275.215	17910.59
275.284	17975.12
275.353	17980.56
275.421	17949.53
275.49	18046.34
275.559	18059.55
275.627	18095.11
275.696	18113.76
275.765	18150.24
275.833	18167.79
275.902	18211.98
275.971	18293.18
276.039	18372.6
276.108	18424.31
276.177	18454.43
276.245	18463.82
276.314	18488.11
276.383	18556.73
276.451	18393.16
276.52	18452.57
276.588	18532.14
276.657	18590.54
276.725	18600.47
276.794	18645.29
276.863	18722.1
276.931	18679.21
277	18743.4
277.068	18821.42
277.137	18925.47
277.205	18968.88
277.274	19071.43
277.342	19145.36
277.411	19123.48
277.48	19130.85
277.548	19139.86
277.617	19186.08
277.685	19212.29
277.754	19270.51
277.822	19289.2
277.89	19373.11
277.959	19388.04
278.027	19370.02
278.096	19381.83
278.164	19519.71
278.233	19534.36
278.301	19545.54
278.37	19615.61
278.438	19611.85
278.507	19653.68
278.575	19605.05
278.643	19633.24
278.712	19614.4
278.78	19607.7
278.849	19693.58
278.917	19761.05
278.985	19787.89
279.054	19842.63
279.122	19926.73
279.191	19967.5
279.259	19993.71
279.327	19960.27
279.396	20061.09
279.464	20090.05
279.532	20150.29
279.601	20176.66
279.669	20218.49
279.737	20313.67
279.806	20366.39
279.874	20445.52
279.942	20483.06
280.011	20524.07
280.079	20586.24
280.147	20685.14
280.215	20742.3
280.284	20775.55
280.352	20775.31
280.42	20841
280.488	20860.03
280.557	20876.28
280.625	20931.85
280.693	20979.22
280.761	21040.47
280.83	21023.56
280.898	21115.46
280.966	21095.42
281.034	21032.37
281.102	21029.62
281.171	21050.4
281.239	21126.99
281.307	21135.04
281.375	21146.32
281.443	21270.96
281.512	21310.39
281.58	21375.13
281.648	21372.14
281.716	21406.94
281.784	21452.97
281.852	21477.99
281.92	21511.34
281.989	21588.27
282.057	21576.66
282.125	21778.06
282.193	21822.07
282.261	21865.02
282.329	21883.67
282.397	21942.81
282.465	22003.25
282.533	22093.91
282.601	22095.55
282.67	22048.79
282.738	22069.9
282.806	22151.46
282.874	22145.24
282.942	22199.87
283.01	22216.55
283.078	22285.53
283.146	22317.25
283.214	22392.74
283.282	22441.34
283.35	22525.81
283.418	22546.54
283.486	22602.07
283.554	22500.06
283.622	22540.47
283.69	22592.97
283.758	22634.96
283.826	22710.36
283.894	22773.81
283.962	22881.25
284.03	22978.06
284.098	23044.06
284.165	23075.11
284.233	23116.67
284.301	23153.41
284.369	23163.2
284.437	23184.08
284.505	23211.85
284.573	23301.49
284.641	23318.75
284.709	23383.42
284.777	23359.65
284.845	23440.63
284.912	23510.16
284.98	23566.58
285.048	23596.67
285.116	23659.8
285.184	23745.22
285.252	23782.64
285.319	23787.42
285.387	23801.8
285.455	23797.65
285.523	23854.94
285.591	23898.82
285.659	23945.8
285.726	24033.59
285.794	24040.48
285.862	24088.28
285.93	24142.01
285.997	24179.73
286.065	24213.16
286.133	24233.61
286.201	24292.65
286.269	24290.04
286.336	24304.08
286.404	24327.52
286.472	24407.22
286.539	24378.18
286.607	24364.97
286.675	24417.65
286.743	24483.11
286.81	24510.32
286.878	24590.89
286.946	24619.4
287.013	24661.99
287.081	24704.59
287.149	24698.22
287.216	24804.56
287.284	24833.7
287.352	24882.28
287.419	24917.75
287.487	25014.7
287.555	25079.47
287.622	25113.05
287.69	25174.29
287.758	25263.61
287.825	25314.13
287.893	25319.58
287.96	25390.98
288.028	25473.75
288.096	25528.1
288.163	25589.06
288.231	25595.72
288.298	25635.3
288.366	25717.21
288.433	25768.69
288.501	25795.04
288.569	25847.89
288.636	25875.55
288.704	25958.15
288.771	26018.2
288.839	26040.16
288.906	26045.38
288.974	26100.09
289.041	26140.97
289.109	26146.38
289.176	26225.44
289.244	26274.24
289.311	26354.69
289.379	26437.34
289.446	26496.59
289.514	26528.85
289.581	26567.1
289.649	26639.61
289.716	26698.77
289.783	26725.72
289.851	26824.13
289.918	26873.23
289.986	26944.9
290.053	27007.79
290.121	27044.84
290.188	27111.79
290.255	27253.91
290.323	27301.83
290.39	27348.55
290.458	27415.43
290.525	27524.79
290.592	27546.59
290.66	27601.31
290.727	27627.55
290.794	27720.86
290.862	27760.82
290.929	27832.24
290.996	27885.43
291.064	27958.05
291.131	28034.08
291.198	28125.85
291.266	28172
291.333	28230.17
291.4	28307.8
291.468	28401.68
291.535	28447.83
291.602	28502.94
291.669	28514.3
291.737	28577.61
291.804	28613.97
291.871	28708.75
291.938	28780.13
292.006	28914.35
292.073	28998.9
292.14	29086.89
292.207	29094.24
292.275	29139.49
292.342	29205.65
292.409	29334.3
292.476	29445.56
292.543	29469.2
292.611	29502
292.678	29606.81
292.745	29715.04
292.812	29776.82
292.879	29805.36
292.946	29858.36
293.014	29939.78
293.081	30014.48
293.148	30090.42
293.215	30192.11
293.282	30222.83
293.349	30286.91
293.416	30256.07
293.484	30340.27
293.551	30420.03
293.618	30527.15
293.685	30662.81
293.752	30690.06
293.819	30727.04
293.886	30738.86
293.953	30811.44
294.02	30908.44
294.087	30958.35
294.154	30979.16
294.221	31083.32
294.288	31135.31
294.356	31243.3
294.423	31300.68
294.49	31329.48
294.557	31418.76
294.624	31438.51
294.691	31559.12
294.758	31611.13
294.825	31691.31
294.892	31713.58
294.959	31754.94
295.026	31829.58
295.093	31845.28
295.16	31896.69
295.226	31948.56
295.293	32075.4
295.36	32132.2
295.427	32209.14
295.494	32316.33
295.561	32407.57
295.628	32520.24
295.695	32618.01
295.762	32671.98
295.829	32761.15
295.896	32865.06
295.963	32947.69
296.03	33024.62
296.096	33077.01
296.163	33154.65
296.23	33259.72
296.297	33363.9
296.364	33427.09
296.431	33489.53
296.498	33527.52
296.564	33663.35
296.631	33726.7
296.698	33746
296.765	33876.4
296.832	33896.66
296.899	33898.41
296.965	34008.13
297.032	33994.98
297.099	34105.8
297.166	34191.04
297.233	34228.09
297.299	34248.98
297.366	34301.02
297.433	34367.19
297.5	34463.27
297.566	34517.11
297.633	34564.88
297.7	34617.31
297.767	34649.5
297.833	34719.1
297.9	34802.7
297.967	34793.58
298.033	34884.38
298.1	35016.7
298.167	35030.96
298.234	35118.8
298.3	35201.98
298.367	35237.3
298.434	35320.52
298.5	35329.49
298.567	35360.45
298.634	35405.9
298.7	35508.3
298.767	35570.26
298.834	35672.88
298.9	35706.66
298.967	35742.85
299.033	35830.35
299.1	35924.4
299.167	36016.23
299.233	36056.42
299.3	36139.54
299.366	36249.91
299.433	36342.83
299.5	36303.27
299.566	36370.91
299.633	36457.02
299.699	36535.61
299.766	36574.77
299.832	36635.8
299.899	36721.96
299.965	36806.8
300.032	36852.33
300.099	36936.84
300.165	36993.11
300.232	37014.52
300.298	37046.65
300.365	37132.42
300.431	37181.76
300.498	37215.06
300.564	37288.03
300.631	37379.79
300.697	37472.05
300.763	37518.46
300.83	37557.07
300.896	37647.56
300.963	37727.63
301.029	37781.39
301.096	37847.1
301.162	37923.57
301.229	37941.15
301.295	37962.22
301.361	38027.49
301.428	38095.8
301.494	38082.21
301.561	38138.88
301.627	38213.23
301.693	38284.9
301.76	38357.71
301.826	38385.54
301.892	38468.88
301.959	38549.61
302.025	38580.65
302.092	38599.4
302.158	38675.4
302.224	38725
302.291	38753.85
302.357	38777.75
302.423	38803.01
302.49	38810.34
302.556	38893.9
302.622	38949.66
302.688	39032.05
302.755	39119.6
302.821	39179.05
302.887	39271.63
302.954	39317.15
303.02	39387.69
303.086	39459.93
303.152	39493.26
303.219	39521.78
303.285	39584.75
303.351	39646.7
303.417	39692.57
303.483	39718.85
303.55	39743.48
303.616	39781.29
303.682	39829.38
303.748	39861.83
303.815	39949.88
303.881	40037.92
303.947	40052.94
304.013	40102.35
304.079	40120.14
304.145	40097.73
304.212	40156.33
304.278	40177.95
304.344	40216.34
304.41	40210.71
304.476	40222.32
304.542	40249.19
304.608	40318.43
304.674	40307.98
304.741	40335.01
304.807	40384.97
304.873	40453.73
304.939	40555.59
305.005	40549.96
305.071	40590.19
305.137	40653.65
305.203	40624.4
305.269	40663.33
305.335	40750.09
305.401	40793.98
305.467	40827.85
305.533	40895.46
305.599	40956.36
305.666	41028
305.732	41078.4
305.798	41163.89
305.864	41282.31
305.93	41349.92
305.996	41394.01
306.062	41440.86
306.128	41473.09
306.194	41493.21
306.259	41524.47
306.325	41513
306.391	41590.72
306.457	41653.66
306.523	41693.72
306.589	41811.65
306.655	41827.89
306.721	41808.44
306.787	41801.44
306.853	41891.29
306.919	41883.65
306.985	41899.55
307.051	41914.13
307.117	41932.61
307.183	41958.04
307.248	41905.82
307.314	41954.83
307.38	42005.64
307.446	42068.31
307.512	42075.21
307.578	42119.94
307.644	42144.83
307.709	42205.46
307.775	42226.41
307.841	42260.79
307.907	42308.09
307.973	42291.95
308.039	42331.92
308.104	42394.01
308.17	42457.74
308.236	42451.76
308.302	42505.14
308.368	42511.41
308.433	42556.34
308.499	42571.17
308.565	42571.56
308.631	42633.26
308.696	42600.58
308.762	42587.21
308.828	42612.99
308.894	42599.38
308.959	42582.65
309.025	42608.76
309.091	42625.2
309.156	42653.21
309.222	42699.21
309.288	42705.54
309.354	42670
309.419	42700.44
309.485	42689.06
309.551	42729.23
309.616	42714.5
309.682	42747.22
309.748	42773.48
309.813	42801.3
309.879	42811.56
309.945	42825.76
310.01	42829.21
310.076	42876.23
310.141	42920.19
310.207	42913.19
310.273	42959.14
310.338	42999.35
310.404	42982.04
310.469	42972.99
310.535	42964.92
310.601	42931.46
310.666	42973.97
310.732	43065.39
310.797	43068.45
310.863	43078.23
310.928	43099.24
310.994	43163.29
311.059	43185.13
311.125	43209.06
311.191	43266.65
311.256	43273.8
311.322	43327.06
311.387	43306.24
311.453	44225.67
311.518	44244.01
311.584	44284.19
311.649	44337.05
311.715	44350.53
311.78	44395.17
311.846	44407.71
311.911	44472.65
311.976	44513.31
312.042	44508.01
312.107	44481.84
312.173	44498.96
312.238	44523.09
312.304	44544.59
312.369	44526.49
312.434	44528.29
312.5	44529.95
312.565	44459.32
312.631	44519.82
312.696	44507.76
312.761	44557.56
312.827	43675.73
312.892	43760.99
312.958	43775
313.023	43807.5
313.088	43840.62
313.154	43842.37
313.219	43851.81
313.284	43848.26
313.35	43854.63
313.415	43859.49
313.48	43887.66
313.546	43923.85
313.611	43974.16
313.676	43975.32
313.741	44002.27
313.807	44062.56
313.872	44116.84
313.937	44186.6
314.003	44251.32
314.068	44313.2
314.133	44353.49
314.198	44351.1
314.264	44318.54
314.329	44319.76
314.394	44326.47
314.459	44351.14
314.525	44437.65
314.59	44460.75
314.655	44455.69
314.72	44521.57
314.785	44557.72
314.851	44573.43
314.916	44544.29
314.981	44512.91
315.046	44515.39
315.111	44519.57
315.176	44506.14
315.242	44547.31
315.307	44559.43
315.372	44518.65
315.437	44509.65
315.502	44518.31
315.567	44582.64
315.632	44563.61
315.698	44599.42
315.763	44610.71
315.828	44620.45
315.893	44613.78
315.958	44630.22
316.023	44625.89
316.088	44579.08
316.153	44530.24
316.218	44511.51
316.283	44469.92
316.348	44450.12
316.413	44453.72
316.479	44405.13
316.544	44306.53
316.609	44201.4
316.674	44082.81
316.739	43957.09
316.804	43846.14
316.869	43720.95
316.934	43596.26
316.999	43480.65
317.064	43292.24
317.129	43134.89
317.194	42983.84
317.259	42805.44
317.324	42613.34
317.389	42441.42
317.454	42272.16
317.518	42132.97
317.583	42019.82
317.648	41897.4
317.713	41737.36
317.778	41508.23
317.843	41368.66
317.908	41190.3
317.973	41021.82
318.038	40889.33
318.103	40737.38
318.168	40575.55
318.233	40426.06
318.297	40211.76
318.362	40036.09
318.427	39857.85
318.492	39723.54
318.557	39507.75
318.622	39366.07
318.687	39230.64
318.751	39049.43
318.816	38902.14
318.881	38721.17
318.946	38489.23
319.011	38278.3
319.075	38081.96
319.14	37885.47
319.205	37670.16
319.27	37491.13
319.335	37266.88
319.399	37057.44
319.464	36884
319.529	36643.08
319.594	36434.7
319.658	36259.06
319.723	36033.55
319.788	35855.06
319.853	35587.78
319.917	35406.51
319.982	35136.71
320.047	34929.28
320.112	34757
320.176	34496.5
320.241	34295.87
320.306	34092.83
320.37	33875.64
320.435	33682.34
320.5	33508.36
320.564	33291.71
320.629	33064.27
320.694	32867.6
320.758	32630.63
320.823	32399.39
320.888	32213.6
320.952	31959.19
321.017	31718.92
321.082	31500.65
321.146	31289.54
321.211	31088.88
321.275	30848.45
321.34	30620.11
321.405	30369
321.469	30108.97
321.534	29866.8
321.598	29595.05
321.663	29403.64
321.727	29196.45
321.792	28927.11
321.857	28675.17
321.921	28443.22
321.986	28210.74
322.05	27923.92
322.115	27711.97
322.179	27457.04
322.244	27184.89
322.308	26972.66
322.373	26719.16
322.437	26487.65
322.502	26292.5
322.566	26035.82
322.631	25822.71
322.695	25589.74
322.76	25348.68
322.824	25130.98
322.889	24888.99
322.953	24646.82
323.018	24310.03
323.082	24001.3
323.146	23727.47
323.211	23448.6
323.275	23195.93
323.34	22933.77
323.404	22716.91
323.468	22454.01
323.533	22209.3
323.597	21942.39
323.662	21664.18
323.726	21439.78
323.79	21173.07
323.855	20838.31
323.919	20564.68
323.983	20303.54
324.048	19905.24
324.112	19940.48
324.177	19138.92
324.241	18091.63
324.305	17055.9
324.37	16049.64
324.434	15060.34
324.498	14785.5
324.562	14474.92
324.627	14118.29
324.691	13773.6
324.755	13373.22
324.82	12919.53
324.884	12439.27
324.948	11959.78
325.012	11372.96
325.077	10643.47
