Data from 20250626_reference_water_MAYP1162681_15-54-55-008.txt Node
Date: Thu Jun 26 15:54:55 BST 2025
User: adleo
Spectrometer: MAYP116268
Trigger mode: 0
Integration Time (sec): 5.000000E0
Scans to average: 1
Electric dark correction enabled: true
Nonlinearity correction enabled: true
Boxcar width: 10
XAxis mode: Wavelengths
Number of Pixels in Spectrum: 2068
>>>>>Begin Spectral Data<<<<<
179.565	5555.74
179.642	5855.42
179.718	6079.92
179.795	6297.33
179.871	6467.35
179.948	6569.13
180.024	6685.8
180.101	6805.8
180.177	6878.05
180.254	6993.72
180.33	7110.22
180.407	7532.11
180.483	7962.48
180.56	8404.14
180.636	8815
180.712	8761.31
180.789	8810.47
180.865	8876.09
180.942	8919.79
181.018	8973.61
181.095	9044.17
181.171	9064.53
181.248	9063.28
181.324	9142.36
181.4	9164.75
181.477	9216.7
181.553	9276.92
181.63	9375.4
181.706	9448.12
181.782	9500.92
181.859	9505.88
181.935	9533.96
182.011	9524.32
182.088	9599.5
182.164	9687.71
182.24	9748.09
182.317	9796.87
182.393	9782.18
182.469	9845.13
182.546	9908.85
182.622	9933.32
182.698	9915.54
182.775	9982.06
182.851	10048.77
182.927	10014.14
183.003	9998.1
183.08	9972.77
183.156	10023.01
183.232	10011.92
183.308	9960.53
183.385	9986.25
183.461	10067.52
183.537	10072.24
183.613	10131.39
183.69	10094.25
183.766	10049.39
183.842	10088.66
183.918	10114.04
183.995	10175.46
184.071	10191.89
184.147	10171.08
184.223	10113
184.299	10170.43
184.375	10111.28
184.452	10143.95
184.528	10310.27
184.604	10364.21
184.68	10421
184.756	10451.5
184.832	10470.3
184.908	10500.25
184.985	10503.86
185.061	10422.64
185.137	10465
185.213	10407.62
185.289	10419.81
185.365	10383.01
185.441	10373.28
185.517	10440.65
185.593	10428.99
185.669	10421.18
185.745	10462.9
185.822	10538.08
185.898	10490.28
185.974	10538.79
186.05	10500.96
186.126	10404.12
186.202	10365.06
186.278	10342.7
186.354	10291.82
186.43	10323
186.506	10306.77
186.582	10307.88
186.658	10343.81
186.734	10248.82
186.81	10256.04
186.886	10261.92
186.962	10321.02
187.038	10295.06
187.114	10251.2
187.19	10285.41
187.266	10242.15
187.341	10251.6
187.417	10222.41
187.493	10222.45
187.569	10237.29
187.645	10215.76
187.721	10167.48
187.797	10212.66
187.873	10240.61
187.949	10217.88
188.025	10185.83
188.101	10204.37
188.176	10226.58
188.252	10200.62
188.328	10238.37
188.404	10236.73
188.48	10214.53
188.556	10170.83
188.632	10183.6
188.707	10181.82
188.783	10167.31
188.859	10136.11
188.935	10076.61
189.011	10114.38
189.086	10086.58
189.162	10044.81
189.238	10033.16
189.314	10014.13
189.39	9983.49
189.465	9943.31
189.541	10018.52
189.617	9943.56
189.693	9915.25
189.768	9930.42
189.844	10049.34
189.92	10003.79
189.996	10055.29
190.071	10111.8
190.147	10118.54
190.223	10154.97
190.298	10125.72
190.374	10066.62
190.45	10128.65
190.526	10172.63
190.601	10154.47
190.677	10159.77
190.753	10304.1
190.828	10323.85
190.904	10398.82
190.98	10472.88
191.055	10531.71
191.131	10499.23
191.207	10598.66
191.282	10646.97
191.358	10602.85
191.433	10541.35
191.509	10607.52
191.585	10581.89
191.66	10584.15
191.736	10634.79
191.811	10593.49
191.887	10673.49
191.963	10782.67
192.038	10807.92
192.114	10813.99
192.189	10828.73
192.265	10816.55
192.34	10699.57
192.416	10687.43
192.491	10668.74
192.567	10681.89
192.642	10689.89
192.718	10692.69
192.793	10636.36
192.869	10624.12
192.944	10640.31
193.02	10673.61
193.095	10698.04
193.171	10740.25
193.246	10743.48
193.322	10716.15
193.397	10728.1
193.473	10663.48
193.548	10584.93
193.624	10612.16
193.699	10601.94
193.775	10683
193.85	10695.96
193.925	10736.53
194.001	10735.86
194.076	10699.39
194.152	10643.24
194.227	10605.22
194.302	10563.99
194.378	10587.31
194.453	10567.22
194.529	10619.02
194.604	10553.29
194.679	10523.04
194.755	10422.7
194.83	10482.56
194.905	10474.75
194.981	10509.3
195.056	10476.45
195.131	10504.68
195.207	10496.92
195.282	10452.84
195.357	10355.97
195.433	10424.2
195.508	10375.29
195.583	10424.09
195.659	10505.2
195.734	10541.53
195.809	10546.01
195.884	10586.04
195.96	10582.33
196.035	10668.87
196.11	10663.08
196.185	10722.01
196.261	10736.76
196.336	10891.32
196.411	10813.82
196.486	10840.56
196.561	10809.63
196.637	10863.49
196.712	10936.89
196.787	10947.21
196.862	11031.09
196.937	11077.3
197.013	11114.61
197.088	11159.9
197.163	11253.89
197.238	11322.97
197.313	11326.34
197.388	11390.29
197.464	11533.44
197.539	11601.97
197.614	11562.26
197.689	11617.35
197.764	11689.36
197.839	11792.94
197.914	11774.62
197.989	11893.43
198.065	11963.55
198.14	12216.95
198.215	12337.11
198.29	12401.95
198.365	12478.2
198.44	12528.48
198.515	12669.57
198.59	12743.71
198.665	12880.08
198.74	12924.33
198.815	12937.83
198.89	13055.73
198.965	13199.63
199.04	13180.39
199.115	13252.26
199.19	13458.86
199.265	13481.8
199.34	13534.35
199.415	13698.58
199.49	13799.28
199.565	13843.97
199.64	13972.2
199.715	13957.16
199.79	13981.89
199.865	14007.87
199.94	14001.12
200.015	14156.2
200.09	14181.79
200.165	14212.84
200.24	14237.81
200.315	14422.27
200.39	14498.82
200.464	14522.68
200.539	14534.92
200.614	14616.44
200.689	14721.24
200.764	14759.94
200.839	14830.52
200.914	14853.75
200.989	14806.61
201.063	14880.6
201.138	14796.53
201.213	14790.36
201.288	14692.22
201.363	14718.88
201.438	14726.69
201.512	14808.4
201.587	14722.88
201.662	14749.68
201.737	14809.6
201.812	14862.62
201.886	14713.26
201.961	14760.78
202.036	14708.43
202.111	14698.12
202.186	14555.52
202.26	14481.44
202.335	14388.07
202.41	14373.89
202.485	14302.16
202.559	14208.93
202.634	14074.3
202.709	14127.9
202.784	14036.31
202.858	14040.94
202.933	13963.9
203.008	13929.48
203.082	13829.46
203.157	13825.17
203.232	13618.86
203.306	13519.89
203.381	13359.81
203.456	13245.75
203.53	13134.31
203.605	13039.11
203.68	12921
203.754	12897.96
203.829	12829.27
203.904	12726.06
203.978	12667.78
204.053	12688.27
204.127	12633.27
204.202	12624.64
204.277	12538.07
204.351	12504.61
204.426	12470.87
204.5	12435.25
204.575	12269.74
204.65	12320.11
204.724	12292.35
204.799	12335.38
204.873	12319.23
204.948	12308.29
205.022	12263.32
205.097	12221.58
205.171	12291.13
205.246	12339.24
205.32	12339.14
205.395	12336.83
205.469	12292.01
205.544	12324.45
205.618	12239.13
205.693	12295.77
205.767	12246.61
205.842	12344.94
205.916	12324.36
205.991	12278.42
206.065	12304.79
206.14	12386.76
206.214	12367.14
206.289	12320.19
206.363	12382.23
206.438	12392.93
206.512	12438.34
206.586	12530.93
206.661	12580.15
206.735	12480.48
206.81	12488.82
206.884	12566.37
206.958	12506.85
207.033	12593.46
207.107	12627.78
207.181	12785.8
207.256	12761.02
207.33	12849.04
207.405	12917.25
207.479	13010.23
207.553	13054.63
207.628	12979.34
207.702	13042.05
207.776	13010.67
207.851	13037.67
207.925	13110.89
207.999	13098.65
208.073	13086.69
208.148	13105.25
208.222	13047.45
208.296	13202.27
208.371	13280.41
208.445	13332.67
208.519	13479.21
208.593	13540.86
208.668	13522.16
208.742	13541.3
208.816	13549.83
208.89	13625.22
208.965	13631.92
209.039	13681.96
209.113	13764.59
209.187	13878.63
209.261	13861.04
209.336	13965.79
209.41	14069.05
209.484	14081.58
209.558	14208.74
209.632	14278.26
209.707	14337.65
209.781	14451.65
209.855	14536.88
209.929	14624.02
210.003	14658.82
210.077	14647.54
210.151	14874.07
210.226	15047.93
210.3	15177.63
210.374	15304.22
210.448	15324.32
210.522	15373.72
210.596	15426.17
210.67	15478.95
210.744	15706.45
210.818	15866.44
210.892	15972.43
210.966	15949.92
211.041	16014.79
211.115	15991.13
211.189	16115.63
211.263	16194.87
211.337	16226.15
211.411	16294.4
211.485	16264.57
211.559	16326.32
211.633	16356.54
211.707	16220.34
211.781	16258.51
211.855	16092.42
211.929	16049.66
212.003	15973.65
212.077	16021.26
212.151	16076.26
212.225	16119.73
212.299	16059.25
212.373	16008.06
212.447	15980.64
212.52	16115.11
212.594	16141.96
212.668	16197.63
212.742	16125.28
212.816	16100.22
212.89	16066.77
212.964	16062.58
213.038	16075.68
213.112	16131.98
213.186	16189.87
213.26	16081.55
213.333	15853.47
213.407	15872.27
213.481	15885.96
213.555	15931.18
213.629	15862.26
213.703	15771.98
213.777	15759.11
213.85	15655.68
213.924	15810.48
213.998	15804.41
214.072	15761.71
214.146	15676.69
214.219	15648.88
214.293	15625.26
214.367	15625.16
214.441	15670.52
214.515	15596.49
214.588	15467.21
214.662	15280.09
214.736	15168.6
214.81	15189.9
214.883	15223.26
214.957	15157.94
215.031	15076.52
215.105	14939.19
215.178	14848.08
215.252	14795.44
215.326	14652.13
215.4	14535.28
215.473	14271.15
215.547	14145.63
215.621	14056.31
215.694	14046.43
215.768	13907.74
215.842	13805.02
215.915	13698.05
215.989	13533.68
216.063	13447.78
216.136	13428.06
216.21	13395.86
216.284	13408.83
216.357	13373.01
216.431	13310.44
216.504	13296.5
216.578	13367.95
216.652	13387.66
216.725	13362.59
216.799	13373.15
216.873	13340.23
216.946	13347.5
217.02	13296.7
217.093	13255.43
217.167	13109.32
217.24	12991.51
217.314	12930.68
217.387	12866.62
217.461	12798.31
217.535	12820.44
217.608	12726.44
217.682	12675.29
217.755	12684.69
217.829	12604.96
217.902	12576.91
217.976	12547.5
218.049	12473.89
218.123	12353.48
218.196	12344.32
218.27	12279.43
218.343	12172.51
218.417	12176.03
218.49	12139.93
218.563	12197.15
218.637	12203.37
218.71	12298.71
218.784	12345.95
218.857	12395.17
218.931	12429.78
219.004	12438.21
219.077	12465.4
219.151	12496.3
219.224	12487.62
219.298	12481.55
219.371	12543.68
219.444	12481.07
219.518	12490.52
219.591	12522.28
219.665	12682.52
219.738	12705.51
219.811	12680.59
219.885	12740.61
219.958	12781.44
220.031	12783.85
220.105	12799.51
220.178	12810.94
220.251	12784.62
220.325	12814.02
220.398	12829.16
220.471	12851.96
220.544	12898.91
220.618	12864.06
220.691	12898.77
220.764	12918.72
220.838	12956.9
220.911	12932.27
220.984	13052.05
221.057	13100.36
221.131	13131.69
221.204	12988.23
221.277	13086.91
221.35	13270.13
221.424	13258.23
221.497	13259.38
221.57	13301.56
221.643	13354.78
221.716	13412.97
221.79	13412.82
221.863	13424.05
221.936	13446.9
222.009	13460.4
222.082	13504.51
222.155	13522.39
222.229	13616.2
222.302	13663.59
222.375	13684.27
222.448	13738.5
222.521	13754.7
222.594	13759.52
222.667	13724.14
222.74	13805.94
222.814	13793.17
222.887	13767.57
222.96	13845.28
223.033	13911.42
223.106	13939.14
223.179	13984.3
223.252	13995.63
223.325	14042.68
223.398	14056.52
223.471	14090.36
223.544	14121.55
223.617	14142.08
223.69	14167.97
223.763	14114.61
223.837	14146.86
223.91	14174.96
223.983	14107.62
224.056	14053.67
224.129	14077.68
224.202	14158.76
224.275	14144.78
224.348	14103.18
224.42	14053.38
224.493	13976.21
224.566	13950.56
224.639	13982.57
224.712	13936.2
224.785	13921.4
224.858	13898.07
224.931	13874.69
225.004	13820.84
225.077	13826.92
225.15	13693.68
225.223	13696.18
225.296	13810.42
225.369	13720.66
225.442	13680.65
225.514	13709.14
225.587	13738.11
225.66	13756.34
225.733	13750.6
225.806	13753.97
225.879	13747.9
225.952	13707.89
226.025	13785.26
226.097	13846.72
226.17	13834.71
226.243	13751.32
226.316	13756.24
226.389	13769.44
226.461	13802.75
226.534	13833.65
226.607	13824.3
226.68	13943.22
226.753	13933.1
226.825	13814.76
226.898	13905.2
226.971	13911.27
227.044	13939.52
227.117	13956.73
227.189	13981.46
227.262	14039.55
227.335	14073.05
227.407	14072.33
227.48	14125.06
227.553	14134.8
227.626	14112.87
227.698	14129.45
227.771	14187.49
227.844	14166.81
227.916	14202.2
227.989	14153.22
228.062	14157.99
228.134	14280.28
228.207	14289.78
228.28	14288.77
228.352	14322.37
228.425	14333.31
228.498	14402.44
228.57	14386.67
228.643	14472.96
228.716	14492.72
228.788	14485.59
228.861	14483.13
228.934	14571.63
229.006	14583.59
229.079	14591.54
229.151	14590.58
229.224	14550.23
229.296	14585.13
229.369	14731.95
229.442	14803.1
229.514	14787.53
229.587	14858.87
229.659	14753.79
229.732	14779.53
229.804	14838.14
229.877	14942.79
229.949	14987.76
230.022	15066.52
230.094	15066.28
230.167	15049.6
230.239	14971.17
230.312	14950.44
230.384	15049.69
230.457	15042.99
230.529	15056.92
230.602	15055.42
230.674	15064.82
230.747	15117.95
230.819	15168.46
230.892	14999.56
230.964	14994.98
231.037	15033.5
231.109	15006.89
231.181	15068.84
231.254	15015.23
231.326	14988.96
231.399	14965.78
231.471	14928.18
231.544	14808.45
231.616	14871.02
231.688	14872.9
231.761	14863.16
231.833	14848.89
231.905	14724.82
231.978	14731.96
232.05	14701.49
232.122	14708.1
232.195	14672.52
232.267	14728.58
232.339	14696.05
232.412	14784.36
232.484	14750.04
232.556	14706.41
232.629	14822.72
232.701	14842.19
232.773	14854.53
232.846	14844.46
232.918	14843.35
232.99	14872.17
233.062	14927.37
233.135	14949.01
233.207	14909.96
233.279	14976.3
233.351	15025.37
233.424	15044.89
233.496	15007.39
233.568	15142.16
233.64	15092.9
233.713	15122.01
233.785	15122.16
233.857	15147.85
233.929	15081.9
234.001	15186.59
234.074	15288.54
234.146	15176
234.218	15175.47
234.29	15179.76
234.362	15169.39
234.434	15101.24
234.507	15057.95
234.579	14998.42
234.651	14974.94
234.723	15025.46
234.795	15053.75
234.867	15049.42
234.939	15124.71
235.012	15158.35
235.084	15154.64
235.156	15214.95
235.228	15187.57
235.3	15161.78
235.372	15171.23
235.444	15266.43
235.516	15143.76
235.588	15152.58
235.66	15189.85
235.732	15149.21
235.804	15437.37
235.876	15512.08
235.948	15616.68
236.02	15635.04
236.092	15665.32
236.164	15681.32
236.236	15675.25
236.308	15672.16
236.38	15715.49
236.452	15686.04
236.524	15718.15
236.596	15812.12
236.668	15860.42
236.74	15905
236.812	15955.37
236.884	16012.97
236.956	16026.51
237.028	16025.84
237.1	15998.27
237.172	16099.53
237.244	16223.64
237.316	16059.55
237.388	16034.68
237.46	15998.43
237.532	16090.16
237.604	16079.12
237.675	16187.71
237.747	16254.17
237.819	16243.23
237.891	16255.95
237.963	16254.36
238.035	16246.7
238.107	16095.7
238.178	16187.27
238.25	16190.84
238.322	16312.58
238.394	16245.1
238.466	16238.83
238.538	16303.08
238.609	16379.24
238.681	16301.36
238.753	16277.26
238.825	16303.72
238.897	16352.93
238.968	16469.27
239.04	16441.94
239.112	16600.65
239.184	16547.79
239.255	16541.13
239.327	16607.07
239.399	16624.28
239.471	16688
239.542	16746.61
239.614	16842.23
239.686	16731.86
239.758	16824.69
239.829	16782.57
239.901	16877.71
239.973	16912.94
240.044	16965.19
240.116	16987.94
240.188	17014.97
240.259	17036.95
240.331	17027.31
240.403	17079.99
240.474	17019.56
240.546	17011.12
240.618	16931.7
240.689	16934.01
240.761	16974.88
240.833	17056.52
240.904	17073.53
240.976	17079.99
241.048	17115.13
241.119	17180.28
241.191	17253.68
241.262	17341.73
241.334	17362.3
241.405	17381.19
241.477	17393.29
241.549	17416.38
241.62	17452.33
241.692	17523.22
241.763	17611.07
241.835	17649.72
241.906	17683.6
241.978	17646.93
242.049	17757
242.121	17846.01
242.192	17950.64
242.264	17905.34
242.335	17850.78
242.407	17925.19
242.478	17943.31
242.55	17976.8
242.621	17957.63
242.693	17960.32
242.764	17951.36
242.836	17954.4
242.907	18006.39
242.979	18057.62
243.05	18085.77
243.122	18125.86
243.193	18133.96
243.264	18037.04
243.336	18037.53
243.407	18091.6
243.479	18217.23
243.55	18233.86
243.622	18266.63
243.693	18259.4
243.764	18370.91
243.836	18339.01
243.907	18323.83
243.978	18333.76
244.05	18368.93
244.121	18309.8
244.192	18368.45
244.264	18298.48
244.335	18318.19
244.407	18247.44
244.478	18273.18
244.549	18270.43
244.62	18214.05
244.692	18207.73
244.763	18288.46
244.834	18280.99
244.906	18254.72
244.977	18279.78
245.048	18368.5
245.119	18347.44
245.191	18328.55
245.262	18240.75
245.333	18360.36
245.405	18395.11
245.476	18450.53
245.547	18485.27
245.618	18566.04
245.689	18588.3
245.761	18645.7
245.832	18655.91
245.903	18736.01
245.974	18775.28
246.045	18807.13
246.117	18945.68
246.188	18938.79
246.259	18911.13
246.33	18948.96
246.401	18973.87
246.473	18932.62
246.544	18930.31
246.615	19015.17
246.686	19035.85
246.757	19155.5
246.828	19135.75
246.899	19244.8
246.97	19213.82
247.042	19204.13
247.113	19282.39
247.184	19422.88
247.255	19436.09
247.326	19495.6
247.397	19505
247.468	19531.94
247.539	19552.66
247.61	19487.36
247.681	19555.21
247.752	19640.65
247.823	19606.83
247.894	19632.56
247.965	19599.55
248.037	19574.1
248.108	19500.52
248.179	19512.95
248.25	19497.87
248.321	19535.55
248.392	19466.49
248.463	19582.34
248.534	19574.68
248.605	19595.11
248.675	19553.42
248.746	19578.28
248.817	19590.62
248.888	19618.62
248.959	19548.26
249.03	19581.41
249.101	19590.62
249.172	19568.31
249.243	19465.04
249.314	19558.77
249.385	19574.04
249.456	19623.34
249.527	19612.21
249.598	19648.83
249.669	19641.41
249.739	19660.4
249.81	19672.25
249.881	19615.34
249.952	19598.71
250.023	19598.52
250.094	19523.49
250.165	19475.48
250.235	19466.95
250.306	19468.35
250.377	19429.41
250.448	19467.77
250.519	19385.42
250.59	19471.49
250.66	19472.31
250.731	19581.84
250.802	19590.81
250.873	19616.59
250.944	19647.67
251.014	19637.5
251.085	19769.46
251.156	19819.39
251.227	19902.96
251.297	20000.31
251.368	20085.99
251.439	20155.73
251.51	20242.67
251.58	20228.74
251.651	20241.71
251.722	20330.96
251.792	20278.39
251.863	20284.46
251.934	20375.35
252.005	20546.44
252.075	20572.18
252.146	20656.85
252.217	20719.55
252.287	20784.52
252.358	20801.43
252.429	20914.79
252.499	20915.56
252.57	20933.55
252.641	21001.88
252.711	21013.5
252.782	20946.12
252.852	21052.12
252.923	21047.59
252.994	21073.18
253.064	21151.73
253.135	21127.1
253.205	21093.08
253.276	21207.92
253.347	21308.31
253.417	21271.05
253.488	21242.95
253.558	21227.58
253.629	21219.87
253.699	21249.65
253.77	21288.89
253.841	21279.54
253.911	21299.45
253.982	21327.12
254.052	21366.12
254.123	21385.5
254.193	21388.73
254.264	21591.21
254.334	21537.66
254.405	21500.4
254.475	21453.55
254.546	21475.53
254.616	21563.92
254.687	21611.88
254.757	21642.39
254.827	21643.12
254.898	21687.41
254.968	21697.24
255.039	21668.03
255.109	21717.34
255.18	21677.38
255.25	21580.11
255.321	21636.99
255.391	21580.05
255.461	21708.85
255.532	21601.54
255.602	21593.97
255.673	21532.18
255.743	21480.14
255.813	21382.16
255.884	21459.76
255.954	21515.34
256.024	21599.07
256.095	21606.78
256.165	21562.49
256.235	21592.19
256.306	21576.81
256.376	21655.63
256.446	21721.72
256.517	21773.39
256.587	21850.91
256.657	21888.94
256.728	21929.38
256.798	21936.17
256.868	21935.64
256.938	21891.92
257.009	21967.26
257.079	22015.46
257.149	22153.14
257.219	22081.26
257.29	22146.37
257.36	22064.91
257.43	22115.72
257.5	22035.12
257.571	22039.56
257.641	22096.14
257.711	22052.32
257.781	22096.57
257.852	22113.49
257.922	22027.35
257.992	22045.43
258.062	22036.55
258.132	22103.42
258.202	22125.69
258.273	22162.28
258.343	22279.39
258.413	22265.8
258.483	22270.38
258.553	22236.44
258.623	22199.75
258.693	22234.12
258.764	22336.7
258.834	22450.41
258.904	22492.99
258.974	22475.93
259.044	22478.29
259.114	22532.14
259.184	22590.33
259.254	22620.03
259.324	22555.91
259.394	22635.88
259.464	22745.96
259.535	22763.37
259.605	22754.21
259.675	22736.13
259.745	22794.87
259.815	22763.33
259.885	22771.43
259.955	22940.57
260.025	22937.35
260.095	22959.28
260.165	23010.49
260.235	23105.51
260.305	23082.32
260.375	23040.36
260.445	23183.69
260.515	23282.98
260.585	23353.97
260.655	23366.32
260.725	23417.58
260.795	23467.19
260.865	23564.66
260.934	23521.49
261.004	23569.68
261.074	23578.74
261.144	23676.17
261.214	23711.29
261.284	23710.18
261.354	23769.14
261.424	23702.29
261.494	23800.6
261.564	23813.47
261.634	23854.04
261.703	23760.75
261.773	23790.94
261.843	23840.08
261.913	23823.29
261.983	23747.39
262.053	23770.31
262.123	23767.56
262.192	23716.25
262.262	23782.38
262.332	23713.4
262.402	23764.53
262.472	23780.83
262.541	23705.19
262.611	23773.44
262.681	23747.15
262.751	23809.85
262.821	23821.91
262.89	23783.79
262.96	23823.35
263.03	23933.1
263.1	23963.84
263.169	24000.29
263.239	24054.4
263.309	24148.49
263.379	24196.29
263.448	24231.54
263.518	24272.03
263.588	24291.18
263.657	24411.22
263.727	24465.03
263.797	24492.95
263.867	24495.12
263.936	24435.07
264.006	24524.27
264.076	24512.11
264.145	24512.78
264.215	24483.41
264.285	24542.15
264.354	24479.94
264.424	24470.63
264.494	24401.44
264.563	24399.61
264.633	24506.19
264.702	24541.84
264.772	24463.04
264.842	24467.77
264.911	24520.25
264.981	24457.17
265.05	24482.54
265.12	24469.71
265.19	24481.53
265.259	24537.11
265.329	24584.88
265.398	24626.02
265.468	24785.47
265.537	24784.55
265.607	24826.81
265.676	24908.79
265.746	24954.53
265.815	25044.05
265.885	25048.44
265.955	25037.63
266.024	25035.99
266.094	24946.96
266.163	25034.92
266.232	25132.88
266.302	25154.64
266.371	25179.35
266.441	25210.57
266.51	25277.16
266.58	25278.27
266.649	25271.12
266.719	25337.54
266.788	25381.04
266.858	25488.37
266.927	25370.21
266.996	25401.96
267.066	25455.1
267.135	25404.67
267.205	25458.74
267.274	25498.74
267.343	25589.09
267.413	25624.79
267.482	25722.78
267.552	25817.12
267.621	25755.52
267.69	25693.88
267.76	25732.05
267.829	25785.68
267.898	25820.28
267.968	25808.51
268.037	25865.99
268.106	25940.44
268.176	25911.14
268.245	25930.12
268.314	25927.56
268.384	26028.77
268.453	26068.63
268.522	26105.76
268.592	26207.7
268.661	26193.6
268.73	26235.75
268.799	26204.32
268.869	26320.13
268.938	26250.9
269.007	26241.87
269.076	26280.34
269.146	26370.47
269.215	26404.95
269.284	26499.19
269.353	26494.5
269.422	26494.26
269.492	26490.01
269.561	26376.9
269.63	26429.49
269.699	26421.95
269.768	26445.23
269.838	26462.42
269.907	26526.45
269.976	26486.38
270.045	26409.87
270.114	26451.69
270.183	26461.98
270.253	26509.77
270.322	26436.76
270.391	26475.09
270.46	26578.74
270.529	26635.3
270.598	26685.93
270.667	26705.73
270.736	26659
270.806	26707.24
270.875	26799.37
270.944	26818.63
271.013	27004.38
271.082	27042.16
271.151	27100.03
271.22	27042.43
271.289	27064.31
271.358	27076.44
271.427	27138.3
271.496	27178.36
271.565	27180.96
271.634	27212.36
271.703	27395.57
271.772	27483.56
271.841	27500.55
271.91	27444.56
271.979	27472.3
272.048	27432.29
272.117	27493.8
272.186	27498.43
272.255	27582.85
272.324	27647.37
272.393	27706.29
272.462	27690.77
272.531	27719.58
272.6	27731.71
272.669	27857.05
272.738	27876.52
272.807	27921.9
272.876	27895.67
272.945	28092.22
273.013	28177.62
273.082	28269.06
273.151	28143.67
273.22	28200.07
273.289	28242.05
273.358	28370.42
273.427	28387.82
273.496	28464.95
273.564	28519.72
273.633	28605.12
273.702	28576.17
273.771	28590.87
273.84	28640.55
273.909	28693.26
273.977	28750.17
274.046	28774.82
274.115	28843.24
274.184	28841.36
274.253	28862.73
274.322	28975.03
274.39	28896.49
274.459	28890.35
274.528	28824.71
274.597	28859.36
274.665	28907.96
274.734	29009.82
274.803	29031.74
274.872	29072.5
274.94	29066.79
275.009	29379.44
275.078	29376.54
275.147	29441.23
275.215	29480.7
275.284	29578.6
275.353	29606.22
275.421	29558.16
275.49	29692.71
275.559	29693.29
275.627	29729.44
275.696	29764.26
275.765	29815.34
275.833	29843.28
275.902	29909.26
275.971	30029.33
276.039	30161.41
276.108	30240.83
276.177	30293.82
276.245	30289.32
276.314	30333.77
276.383	30415.42
276.451	30191.51
276.52	30277.87
276.588	30393.78
276.657	30475.15
276.725	30482.36
276.794	30538.85
276.863	30665.6
276.931	30619.71
277	30728.58
277.068	30837.56
277.137	30975.64
277.205	31037.3
277.274	31178.08
277.342	31278.41
277.411	31244.68
277.48	31248.95
277.548	31258.49
277.617	31314.56
277.685	31357.43
277.754	31434.74
277.822	31471.82
277.89	31580.73
277.959	31606.48
278.027	31579.17
278.096	31582.8
278.164	31775.8
278.233	31793.48
278.301	31796.29
278.37	31893.28
278.438	31886.74
278.507	31953.66
278.575	31887.79
278.643	31931.48
278.712	31906.49
278.78	31908.33
278.849	32022.27
278.917	32129.4
278.985	32161.75
279.054	32233.23
279.122	32352.19
279.191	32412.36
279.259	32450.09
279.327	32414.51
279.396	32548.64
279.464	32590.33
279.532	32698.15
279.601	32728.81
279.669	32785.88
279.737	32911.95
279.806	32975.74
279.874	33097.24
279.942	33152.19
280.011	33210.89
280.079	33303.86
280.147	33437.79
280.215	33527.32
280.284	33574.32
280.352	33577.13
280.42	33683.53
280.488	33695.75
280.557	33710.68
280.625	33788.69
280.693	33866.94
280.761	33943.44
280.83	33935.54
280.898	34071.32
280.966	34035.98
281.034	33956.58
281.102	33943.02
281.171	33967.84
281.239	34062.04
281.307	34071.55
281.375	34084.25
281.443	34265.61
281.512	34313.73
281.58	34418.72
281.648	34402.81
281.716	34463.7
281.784	34514.91
281.852	34539.6
281.92	34602.74
281.989	34729.2
282.057	34693.7
282.125	34890.31
282.193	34954.24
282.261	35011.81
282.329	35035.05
282.397	35119.61
282.465	35183.92
282.533	35327.79
282.601	35344.57
282.67	35300.71
282.738	35321.52
282.806	35450.5
282.874	35447.83
282.942	35505.87
283.01	35524.75
283.078	35618.81
283.146	35683.62
283.214	35794.94
283.282	35874.52
283.35	35998.78
283.418	36030.96
283.486	36138.6
283.554	36067
283.622	36113.25
283.69	36181.29
283.758	36236.03
283.826	36340.85
283.894	36457.77
283.962	36606.24
284.03	36751.02
284.098	36839.92
284.165	36896.93
284.233	36948.05
284.301	36985.77
284.369	37030.53
284.437	37065.87
284.505	37103.63
284.573	37221.45
284.641	37224.37
284.709	37310.46
284.777	37290.45
284.845	37387.82
284.912	37470.06
284.98	37553.66
285.048	37599.88
285.116	37675.04
285.184	37782.75
285.252	37835.58
285.319	37818.54
285.387	37830.78
285.455	37801.55
285.523	37883.56
285.591	37932.25
285.659	38003.3
285.726	38121.76
285.794	38115.88
285.862	38163.67
285.93	38232.18
285.997	38281.77
286.065	38334.12
286.133	38348.21
286.201	38409.64
286.269	38406.53
286.336	38427.36
286.404	38467.77
286.472	38574.68
286.539	38545.11
286.607	38533.84
286.675	38592.86
286.743	38698.69
286.81	38738.19
286.878	38875.99
286.946	38912.91
287.013	38978.62
287.081	39023.75
287.149	39017.87
287.216	39181.38
287.284	39224.77
287.352	39299.14
287.419	39332.76
287.487	39467.49
287.555	39564.09
287.622	39599.35
287.69	39690.65
287.758	39817.37
287.825	39866
287.893	39876.98
287.96	39975.15
288.028	40102.94
288.096	40181.62
288.163	40258.64
288.231	40282.06
288.298	40343.69
288.366	40466.55
288.433	40523.58
288.501	40553.61
288.569	40632.43
288.636	40660.87
288.704	40794.28
288.771	40881.57
288.839	40921.03
288.906	40945.04
288.974	41063.24
289.041	41133.65
289.109	41139.43
289.176	41231.32
289.244	41315.59
289.311	41429.73
289.379	41552.4
289.446	41620.86
289.514	41683.08
289.581	41750.08
289.649	41823.03
289.716	41891.93
289.783	41923.82
289.851	42073.98
289.918	42164.88
289.986	42272.82
290.053	42351.88
290.121	42401.92
290.188	42487.74
290.255	42688.54
290.323	42741.05
290.39	42761.04
290.458	42862.85
290.525	42996.71
290.592	43032.11
290.66	43112.98
290.727	43162.24
290.794	43274.6
290.862	43337.69
290.929	43424.6
290.996	43491.53
291.064	43609.51
291.131	43717.28
291.198	43838.99
291.266	43894.3
291.333	43957.13
291.4	44050.21
291.468	44188.93
291.535	44231.11
291.602	44304.09
291.669	44312.66
291.737	44392.72
291.804	44465.81
291.871	44599.47
291.938	44687.89
292.006	44885.72
292.073	44999.39
292.14	45116.48
292.207	45164.57
292.275	45231.29
292.342	45329.91
292.409	45520.54
292.476	45694.54
292.543	45733.44
292.611	45795.37
292.678	45935.64
292.745	46120.79
292.812	46220.48
292.879	46268.6
292.946	46358.55
293.014	46479.71
293.081	46575.31
293.148	46705.11
293.215	46833.95
293.282	46879.19
293.349	47004.7
293.416	46987.83
293.484	47107.93
293.551	47218.34
293.618	47349.7
293.685	47520.02
293.752	47557.43
293.819	47603.13
293.886	47599.76
293.953	47704.72
294.02	47835.17
294.087	47936.2
294.154	47968.23
294.221	48110.5
294.288	48176.64
294.356	48323.31
294.423	48418.57
294.49	48460.39
294.557	48582.56
294.624	48612.4
294.691	48773.54
294.758	48845.85
294.825	48951.02
294.892	48982.48
294.959	49039.96
295.026	49138.6
295.093	49190.84
295.16	49275.04
295.226	49339.82
295.293	49537.13
295.36	49615.89
295.427	49725.36
295.494	49862.59
295.561	49978.62
295.628	50145.8
295.695	50304.76
295.762	50407.59
295.829	50544.56
295.896	50696.54
295.963	50818.26
296.03	50951.63
296.096	51036.49
296.163	51163.61
296.23	51313.29
296.297	51460.31
296.364	51546.83
296.431	51649.84
296.498	51716.9
296.564	51910.19
296.631	52004.5
296.698	52008.91
296.765	52185.85
296.832	52216.38
296.899	52222.89
296.965	52386.25
297.032	52367.09
297.099	52514.11
297.166	52620.25
297.233	52670.51
297.299	52730.15
297.366	52817.5
297.433	52905.86
297.5	53029.07
297.566	53115.41
297.633	53182.26
297.7	53263.61
297.767	53343.44
297.833	53451.82
297.9	53545.68
297.967	53549.6
298.033	53685.07
298.1	53889.76
298.167	53927.22
298.234	54050.16
298.3	54171.51
298.367	54210.31
298.434	54315.48
298.5	54346.99
298.567	54389.79
298.634	54442.16
298.7	54589.44
298.767	54664.46
298.834	54799.76
298.9	54855.6
298.967	54890.73
299.033	54984.27
299.1	55133.6
299.167	55269.17
299.233	55310.01
299.3	55435.17
299.366	55568.24
299.433	55704.27
299.5	55666.91
299.566	55749.9
299.633	55874.05
299.699	55999.58
299.766	56069.63
299.832	56163.8
299.899	56277.07
299.965	56414.76
300.032	56496.78
300.099	56592.03
300.165	56679.92
300.232	56739.38
300.298	56809
300.365	56940.92
300.431	57026.98
300.498	57067.68
300.564	57178.19
300.631	57312.06
300.697	57447.12
300.763	57530.49
300.83	57624.24
300.896	57763.02
300.963	57899.85
301.029	57999.47
301.096	58080.84
301.162	58199.42
301.229	58246.57
301.295	58260.07
301.361	58346.45
301.428	58430.01
301.494	58450.68
301.561	58532.73
301.627	58612.21
301.693	58710.04
301.76	58804.21
301.826	58864.36
301.892	58979.96
301.959	59079.41
302.025	59130.56
302.092	59161.26
302.158	59274.33
302.224	59328.2
302.291	59355.75
302.357	59398
302.423	59431.51
302.49	59468.11
302.556	59570.4
302.622	59653.11
302.688	59783.48
302.755	59914.13
302.821	60019.39
302.887	60136.62
302.954	60221.42
303.02	60327.75
303.086	60410.77
303.152	60464.08
303.219	60517.66
303.285	60617.48
303.351	60710.96
303.417	60790.24
303.483	60846.49
303.55	60878.62
303.616	60924.68
303.682	61011.25
303.748	61055.14
303.815	61166.94
303.881	61283.39
303.947	61299.92
304.013	61362.02
304.079	61405.77
304.145	61385.99
304.212	61459.47
304.278	61501.06
304.344	61542.62
304.41	61552.87
304.476	61593.3
304.542	61635.48
304.608	61728.09
304.674	61716.2
304.741	61723.48
304.807	61777.81
304.873	61852.34
304.939	61935.58
305.005	61931.03
305.071	61967.95
305.137	62036.09
305.203	62008.49
305.269	62008.49
305.335	62057.43
305.401	62093.8
305.467	62127.35
305.533	62170.7
305.599	62200.96
305.666	62253.3
305.732	62278.62
305.798	62324.06
305.864	62356.79
305.93	62388.31
305.996	62388.31
306.062	62411.02
306.128	62411.02
306.194	62411.02
306.259	62411.02
306.325	62411.02
306.391	62436.92
306.457	62468.34
306.523	62477.7
306.589	62505.3
306.655	62505.3
306.721	62505.3
306.787	62505.3
306.853	62505.3
306.919	62505.3
306.985	62505.3
307.051	62505.3
307.117	62505.3
307.183	62505.3
307.248	62505.3
307.314	62505.3
307.38	62505.3
307.446	62505.3
307.512	62505.3
307.578	62505.3
307.644	62505.3
307.709	62505.3
307.775	62505.3
307.841	62505.3
307.907	62505.3
307.973	62505.3
308.039	62505.3
308.104	62505.3
308.17	62505.3
308.236	62505.3
308.302	62505.3
308.368	62505.3
308.433	62505.3
308.499	62505.3
308.565	62505.3
308.631	62505.3
308.696	62505.3
308.762	62505.3
308.828	62505.3
308.894	62505.3
308.959	62505.3
309.025	62505.3
309.091	62505.3
309.156	62505.3
309.222	62505.3
309.288	62505.3
309.354	62505.3
309.419	62505.3
309.485	62505.3
309.551	62505.3
309.616	62505.3
309.682	62505.3
309.748	62505.3
309.813	62505.3
309.879	62505.3
309.945	62505.3
310.01	62505.3
310.076	62505.3
310.141	62505.3
310.207	62505.3
310.273	62505.3
310.338	62505.3
310.404	62505.3
310.469	62505.3
310.535	62505.3
310.601	62505.3
310.666	62505.3
310.732	62505.3
310.797	62505.3
310.863	62505.3
310.928	62505.3
310.994	62505.3
311.059	62505.3
311.125	62505.3
311.191	62505.3
311.256	62505.3
311.322	62505.3
311.387	62505.3
311.453	62505.3
311.518	62505.3
311.584	62505.3
311.649	62505.3
311.715	62505.3
311.78	62505.3
311.846	62505.3
311.911	62505.3
311.976	62505.3
312.042	62505.3
312.107	62505.3
312.173	62505.3
312.238	62505.3
312.304	62505.3
312.369	62505.3
312.434	62505.3
312.5	62505.3
312.565	62505.3
312.631	62505.3
312.696	62505.3
312.761	62505.3
312.827	62505.3
312.892	62505.3
312.958	62505.3
313.023	62505.3
313.088	62505.3
313.154	62505.3
313.219	62505.3
313.284	62505.3
313.35	62505.3
313.415	62505.3
313.48	62505.3
313.546	62505.3
313.611	62505.3
313.676	62505.3
313.741	62505.3
313.807	62505.3
313.872	62505.3
313.937	62505.3
314.003	62505.3
314.068	62505.3
314.133	62505.3
314.198	62505.3
314.264	62505.3
314.329	62505.3
314.394	62505.3
314.459	62505.3
314.525	62505.3
314.59	62505.3
314.655	62505.3
314.72	62505.3
314.785	62505.3
314.851	62505.3
314.916	62505.3
314.981	62505.3
315.046	62505.3
315.111	62505.3
315.176	62505.3
315.242	62505.3
315.307	62505.3
315.372	62505.3
315.437	62505.3
315.502	62505.3
315.567	62505.3
315.632	62505.3
315.698	62505.3
315.763	62505.3
315.828	62505.3
315.893	62505.3
315.958	62505.3
316.023	62505.3
316.088	62505.3
316.153	62505.3
316.218	62505.3
316.283	62505.3
316.348	62505.3
316.413	62505.3
316.479	62505.3
316.544	62505.3
316.609	62505.3
316.674	62505.3
316.739	62505.3
316.804	62505.3
316.869	62505.3
316.934	62505.3
316.999	62505.3
317.064	62505.3
317.129	62505.3
317.194	62505.3
317.259	62505.3
317.324	62453.69
317.389	62412.96
317.454	62388.07
317.518	62350.88
317.583	62350.88
317.648	62312.67
317.713	62252.07
317.778	62139.83
317.843	62084.33
317.908	61938.04
317.973	61814.5
318.038	61703.14
318.103	61527.64
318.168	61392.66
318.233	61243.18
318.297	61020.79
318.362	60825.67
318.427	60579.51
318.492	60403.14
318.557	60115.19
318.622	59916.79
318.687	59718.21
318.751	59449.01
318.816	59207.5
318.881	58945.99
318.946	58604.69
319.011	58298.55
319.075	57988.35
319.14	57716.79
319.205	57388.2
319.27	57122.25
319.335	56809.34
319.399	56477.93
319.464	56223.4
319.529	55845.22
319.594	55540.26
319.658	55274.31
319.723	54947.35
319.788	54669.25
319.853	54290.07
319.917	54006.24
319.982	53613.47
320.047	53277.47
320.112	52998.24
320.176	52608.26
320.241	52279.46
320.306	51988.99
320.37	51667.45
320.435	51365.05
320.5	51079.84
320.564	50749.44
320.629	50389.66
320.694	50078.34
320.758	49735.84
320.823	49379.87
320.888	49108.69
320.952	48717.2
321.017	48358.03
321.082	48017.39
321.146	47700.55
321.211	47376.42
321.275	47032.13
321.34	46667.89
321.405	46303.39
321.469	45919.11
321.534	45562.22
321.598	45171.15
321.663	44848.31
321.727	44531.51
321.792	44144.26
321.857	43760.59
321.921	43414.43
321.986	43060.76
322.05	42628.38
322.115	42297.42
322.179	41911.92
322.244	41471.31
322.308	41145.59
322.373	40772.09
322.437	40398.34
322.502	40103.78
322.566	39723.37
322.631	39377.94
322.695	39028.52
322.76	38666.29
322.824	38329.96
322.889	37966.82
322.953	37569.62
323.018	37086.07
323.082	36602.86
323.146	36188.17
323.211	35764.54
323.275	35372.18
323.34	34981.54
323.404	34646.36
323.468	34244.55
323.533	33855.01
323.597	33468.62
323.662	33046.87
323.726	32693.83
323.79	32304.55
323.855	31796.78
323.919	31389.19
323.983	30986.14
324.048	30394.46
324.112	30500.97
324.177	29289.42
324.241	27686.89
324.305	26127.01
324.37	24588.72
324.434	23078.18
324.498	22655.72
324.562	22190.08
324.627	21645.52
324.691	21115.13
324.755	20517.1
324.82	19843.13
324.884	19137.4
324.948	18404.34
325.012	17517.71
325.077	16432.95
