Data from 20250701_urea_2M_exp3_MAYP1162681_02-29-49-756.txt Node
Date: Wed Jul 02 02:29:49 BST 2025
User: adleo
Spectrometer: MAYP116268
Trigger mode: 0
Integration Time (sec): 4.000000E0
Scans to average: 1
Electric dark correction enabled: true
Nonlinearity correction enabled: true
Boxcar width: 10
XAxis mode: Wavelengths
Number of Pixels in Spectrum: 2068
>>>>>Begin Spectral Data<<<<<
179.565	3691.95
179.642	3885.79
179.718	4027.72
179.795	4156.58
179.871	4275.43
179.948	4335.77
180.024	4406.58
180.101	4486.48
180.177	4543.82
180.254	4622.97
180.33	4700.15
180.407	4968.17
180.483	5255.88
180.56	5544.83
180.636	5812.99
180.712	5773.63
180.789	5810.81
180.865	5848.77
180.942	5877.69
181.018	5915.63
181.095	5962.1
181.171	5974.66
181.248	5979.8
181.324	6037.54
181.4	6065.71
181.477	6099.45
181.553	6148.8
181.63	6220.31
181.706	6274.23
181.782	6291.35
181.859	6290
181.935	6307.72
182.011	6299.7
182.088	6354.24
182.164	6425.42
182.24	6469.95
182.317	6500.04
182.393	6487.28
182.469	6540.33
182.546	6587.09
182.622	6601.3
182.698	6588.62
182.775	6634.91
182.851	6678.36
182.927	6649.17
183.003	6635.49
183.08	6616.09
183.156	6645.33
183.232	6633.76
183.308	6594.67
183.385	6626.01
183.461	6683.59
183.537	6686.19
183.613	6719.18
183.69	6689.74
183.766	6648.36
183.842	6672.33
183.918	6690.25
183.995	6735.14
184.071	6739.46
184.147	6720.54
184.223	6681.57
184.299	6721.16
184.375	6682.6
184.452	6706.63
184.528	6838.66
184.604	6871.12
184.68	6908.72
184.756	6929.09
184.832	6943.22
184.908	6961.36
184.985	6958.96
185.061	6903.87
185.137	6933.13
185.213	6897.55
185.289	6902.3
185.365	6888.37
185.441	6884.72
185.517	6932.84
185.593	6920.06
185.669	6914.29
185.745	6949.08
185.822	7005.43
185.898	6976.5
185.974	7008.15
186.05	6977.87
186.126	6898.3
186.202	6875.77
186.278	6862.37
186.354	6831.48
186.43	6851.23
186.506	6845.28
186.582	6842.35
186.658	6865.49
186.734	6796.4
186.81	6804.46
186.886	6818.48
186.962	6852.87
187.038	6838.94
187.114	6802.36
187.19	6833.83
187.266	6804.1
187.341	6803.43
187.417	6779.42
187.493	6778.79
187.569	6787.87
187.645	6766.79
187.721	6727.44
187.797	6754.77
187.873	6770.38
187.949	6754.82
188.025	6736.65
188.101	6745.3
188.176	6765.18
188.252	6749.96
188.328	6779.9
188.404	6778.56
188.48	6758.44
188.556	6731.59
188.632	6729.95
188.707	6739.18
188.783	6723.75
188.859	6705.47
188.935	6668.29
189.011	6696.43
189.086	6675.21
189.162	6645.77
189.238	6638.57
189.314	6632.9
189.39	6616.28
189.465	6586.17
189.541	6638.05
189.617	6583.26
189.693	6564.2
189.768	6581.45
189.844	6663.44
189.92	6638
189.996	6672.63
190.071	6705.82
190.147	6705.53
190.223	6734.64
190.298	6709.51
190.374	6673.4
190.45	6714.59
190.526	6743.99
190.601	6727.41
190.677	6729.48
190.753	6821.33
190.828	6839.53
190.904	6892.62
190.98	6940.86
191.055	6982.27
191.131	6959.59
191.207	7035.67
191.282	7070.48
191.358	7031.23
191.433	6982.63
191.509	7026.75
191.585	7014.93
191.66	7017.76
191.736	7047.26
191.811	7021.79
191.887	7078.75
191.963	7152.27
192.038	7169.27
192.114	7174.37
192.189	7181.52
192.265	7175.81
192.34	7106.34
192.416	7097.55
192.491	7079.71
192.567	7090.34
192.642	7098.37
192.718	7098.8
192.793	7054.88
192.869	7040.42
192.944	7051.85
193.02	7077.18
193.095	7088.62
193.171	7110.82
193.246	7116.15
193.322	7105.19
193.397	7102.27
193.473	7054.67
193.548	7001.18
193.624	7024.5
193.699	7014.74
193.775	7064.01
193.85	7065.88
193.925	7096.06
194.001	7099.61
194.076	7072.04
194.152	7029.93
194.227	7007.34
194.302	6968.21
194.378	6982.81
194.453	6976.09
194.529	7013.62
194.604	6969.7
194.679	6948.42
194.755	6884.31
194.83	6920.27
194.905	6910.23
194.981	6945.5
195.056	6921.82
195.131	6938.3
195.207	6931.08
195.282	6902.12
195.357	6843.11
195.433	6893.16
195.508	6855.82
195.583	6877.96
195.659	6927.36
195.734	6949.71
195.809	6942.74
195.884	6978.85
195.96	6981.3
196.035	7026.79
196.11	7018.77
196.185	7052.73
196.261	7061.72
196.336	7164.06
196.411	7117.76
196.486	7138.85
196.561	7114.3
196.637	7141.39
196.712	7197.31
196.787	7199.66
196.862	7251.41
196.937	7291.33
197.013	7312.63
197.088	7347.18
197.163	7421.19
197.238	7478.64
197.313	7479.17
197.388	7524.11
197.464	7625.49
197.539	7659.62
197.614	7638.62
197.689	7678.15
197.764	7736.49
197.839	7811.97
197.914	7789.46
197.989	7867.37
198.065	7912.42
198.14	8077.09
198.215	8171.47
198.29	8205.06
198.365	8252.58
198.44	8289.9
198.515	8379.16
198.59	8435.84
198.665	8513.11
198.74	8536.26
198.815	8547.1
198.89	8627.58
198.965	8733.87
199.04	8711.15
199.115	8765.42
199.19	8912.28
199.265	8920.55
199.34	8950.97
199.415	9057.93
199.49	9128.66
199.565	9156.15
199.64	9243.38
199.715	9237.17
199.79	9254.21
199.865	9278.53
199.94	9270.06
200.015	9375.61
200.09	9389.91
200.165	9405.27
200.24	9432.62
200.315	9568.15
200.39	9615.49
200.464	9637.3
200.539	9641.5
200.614	9702.55
200.689	9778.45
200.764	9796.9
200.839	9856.3
200.914	9870.99
200.989	9842.37
201.063	9889.04
201.138	9827.49
201.213	9820.74
201.288	9756.88
201.363	9770.75
201.438	9771.33
201.512	9831.07
201.587	9773.71
201.662	9787.58
201.737	9829.34
201.812	9857.76
201.886	9742.69
201.961	9772.28
202.036	9732.85
202.111	9717.38
202.186	9619.77
202.26	9562.5
202.335	9490.35
202.41	9465.17
202.485	9411.5
202.559	9341.1
202.634	9257.08
202.709	9292.73
202.784	9221.58
202.858	9219.99
202.933	9157.79
203.008	9132.37
203.082	9062.23
203.157	9052.7
203.232	8909.51
203.306	8840.5
203.381	8731.41
203.456	8660.8
203.53	8581.28
203.605	8513.6
203.68	8439.8
203.754	8418.45
203.829	8368.83
203.904	8301.53
203.978	8266.87
204.053	8279.87
204.127	8234.22
204.202	8226.57
204.277	8170.24
204.351	8151.76
204.426	8123.85
204.5	8096.05
204.575	7978.63
204.65	8012.22
204.724	7987.29
204.799	8010.74
204.873	7993.8
204.948	7990.19
205.022	7942.5
205.097	7912.52
205.171	7957.91
205.246	7978.03
205.32	7973.27
205.395	7965.76
205.469	7940.72
205.544	7957.13
205.618	7894.03
205.693	7931.11
205.767	7884.8
205.842	7953.75
205.916	7935.76
205.991	7903.68
206.065	7920.27
206.14	7973.17
206.214	7962.82
206.289	7936.17
206.363	7980.17
206.438	7990.81
206.512	8010.15
206.586	8084.73
206.661	8113.23
206.735	8038.53
206.81	8040.69
206.884	8089.02
206.958	8047
207.033	8098.68
207.107	8122.51
207.181	8238.09
207.256	8220.24
207.33	8288.98
207.405	8330.53
207.479	8392.06
207.553	8418.52
207.628	8369.04
207.702	8410.79
207.776	8387.26
207.851	8398.61
207.925	8450.89
207.999	8432.7
208.073	8429.82
208.148	8428.85
208.222	8389.44
208.296	8494.6
208.371	8548.87
208.445	8584.87
208.519	8681.75
208.593	8722.56
208.668	8711.25
208.742	8715.87
208.816	8718.85
208.89	8767.1
208.965	8755.49
209.039	8782.74
209.113	8844.5
209.187	8909.51
209.261	8893.44
209.336	8957.17
209.41	9024.38
209.484	9024.95
209.558	9107.13
209.632	9151.41
209.707	9189.97
209.781	9267.77
209.855	9318.72
209.929	9379.86
210.003	9398.93
210.077	9400.9
210.151	9562.45
210.226	9674.06
210.3	9759.06
210.374	9844.46
210.448	9851.34
210.522	9893.35
210.596	9926.49
210.67	9953.79
210.744	10119.41
210.818	10234.91
210.892	10302.46
210.966	10287.05
211.041	10342.2
211.115	10324.48
211.189	10398.32
211.263	10451.4
211.337	10471.68
211.411	10522.75
211.485	10503.96
211.559	10539.27
211.633	10544.51
211.707	10437.43
211.781	10459.02
211.855	10338.39
211.929	10303.81
212.003	10238.28
212.077	10263.1
212.151	10301.45
212.225	10330.65
212.299	10287.8
212.373	10245.27
212.447	10223.25
212.52	10315.07
212.594	10319.36
212.668	10352.31
212.742	10305.58
212.816	10285.2
212.89	10256.87
212.964	10242.22
213.038	10242.27
213.112	10284.05
213.186	10330.14
213.26	10246.61
213.333	10091.17
213.407	10097.67
213.481	10107.68
213.555	10145.47
213.629	10101.14
213.703	10035.38
213.777	10024.01
213.85	9949.44
213.924	10048.12
213.998	10037.76
214.072	10005.38
214.146	9946.75
214.219	9927.77
214.293	9908.94
214.367	9903.93
214.441	9930.09
214.515	9885.71
214.588	9792.66
214.662	9660.52
214.736	9579.14
214.81	9597.47
214.883	9609.02
214.957	9571.23
215.031	9507.8
215.105	9412.01
215.178	9347.63
215.252	9311.67
215.326	9208.19
215.4	9121.72
215.473	8932.75
215.547	8852.91
215.621	8782.3
215.694	8776.42
215.768	8682.7
215.842	8614.56
215.915	8542.62
215.989	8423.1
216.063	8358.88
216.136	8339.53
216.21	8312.5
216.284	8320.25
216.357	8293.49
216.431	8255.1
216.504	8244.85
216.578	8294.56
216.652	8310.09
216.725	8282.32
216.799	8290.07
216.873	8272.95
216.946	8279.39
217.02	8245.65
217.093	8211.88
217.167	8115.86
217.24	8031.41
217.314	7995.12
217.387	7947.58
217.461	7898.9
217.535	7925.07
217.608	7865.63
217.682	7838.69
217.755	7857.11
217.829	7799.43
217.902	7780.96
217.976	7761.15
218.049	7714.22
218.123	7643.58
218.196	7635.6
218.27	7601.61
218.343	7528.38
218.417	7523.67
218.49	7499.83
218.563	7544.49
218.637	7550.64
218.71	7620.18
218.784	7645.14
218.857	7671.15
218.931	7692.29
219.004	7703.45
219.077	7721.64
219.151	7742.26
219.224	7728.12
219.298	7721.19
219.371	7768.96
219.444	7726.86
219.518	7736.33
219.591	7752.53
219.665	7856.58
219.738	7874.08
219.811	7856.92
219.885	7901.51
219.958	7928.54
220.031	7934.74
220.105	7960.53
220.178	7968.46
220.251	7942.05
220.325	7966.64
220.398	7998
220.471	8015.93
220.544	8046.76
220.618	8019.53
220.691	8041.85
220.764	8068.54
220.838	8099.13
220.911	8081.96
220.984	8171.64
221.057	8210.51
221.131	8239.75
221.204	8147.91
221.277	8217.16
221.35	8341.2
221.424	8334.7
221.497	8350.97
221.57	8370.82
221.643	8399.32
221.716	8447.11
221.79	8452.98
221.863	8465.73
221.936	8467.08
222.009	8482.18
222.082	8515.25
222.155	8527.03
222.229	8597.41
222.302	8623.48
222.375	8627.14
222.448	8665.55
222.521	8668.19
222.594	8668.43
222.667	8638.14
222.74	8686.11
222.814	8683.6
222.887	8666.17
222.96	8715.31
223.033	8749.59
223.106	8780.43
223.179	8807.15
223.252	8818.66
223.325	8852.68
223.398	8866.35
223.471	8889.89
223.544	8914.14
223.617	8924.92
223.69	8943.4
223.763	8906.04
223.837	8926.4
223.91	8953.26
223.983	8902.45
224.056	8871.79
224.129	8888.16
224.202	8951.37
224.275	8939
224.348	8908.1
224.42	8873.92
224.493	8817.32
224.566	8800.86
224.639	8824.15
224.712	8792.03
224.785	8783.46
224.858	8769.22
224.931	8753.57
225.004	8719.35
225.077	8713.87
225.15	8628.42
225.223	8631.93
225.296	8713.61
225.369	8657.6
225.442	8628.96
225.514	8651.67
225.587	8670.09
225.66	8683.57
225.733	8674.04
225.806	8684.87
225.879	8670.58
225.952	8634.26
226.025	8681.86
226.097	8732.37
226.17	8720.48
226.243	8659.91
226.316	8646.57
226.389	8653.79
226.461	8670.45
226.534	8689.45
226.607	8686.23
226.68	8772.26
226.753	8764.94
226.825	8677.82
226.898	8740.91
226.971	8744.47
227.044	8758.29
227.117	8764.11
227.189	8776.24
227.262	8815.77
227.335	8834.3
227.407	8836.04
227.48	8875.44
227.553	8890.46
227.626	8866.57
227.698	8873.26
227.771	8910.2
227.844	8892.68
227.916	8910.64
227.989	8877.04
228.062	8875.12
228.134	8954.66
228.207	8952.97
228.28	8943.54
228.352	8958.32
228.425	8964.67
228.498	9011.66
228.57	8991.31
228.643	9043.5
228.716	9046.97
228.788	9033.1
228.861	9028.38
228.934	9090.91
229.006	9092.94
229.079	9091.68
229.151	9078.78
229.224	9038.12
229.296	9070.94
229.369	9171.5
229.442	9219.85
229.514	9202.34
229.587	9242.05
229.659	9173.2
229.732	9185.72
229.804	9231.98
229.877	9316.36
229.949	9344.97
230.022	9388.09
230.094	9395.88
230.167	9387.21
230.239	9337.77
230.312	9328.05
230.384	9401.12
230.457	9393.65
230.529	9411.32
230.602	9416.14
230.674	9429.72
230.747	9474.66
230.819	9498.55
230.892	9376.77
230.964	9377.59
231.037	9403.14
231.109	9398.76
231.181	9435.49
231.254	9400.78
231.326	9382.48
231.399	9344.37
231.471	9314.22
231.544	9238.27
231.616	9281.88
231.688	9294.84
231.761	9288.73
231.833	9277.42
231.905	9188.36
231.978	9184.56
232.05	9166.94
232.122	9166.27
232.195	9138.73
232.267	9171.47
232.339	9147.53
232.412	9217.57
232.484	9185.06
232.556	9163.21
232.629	9228.48
232.701	9245.39
232.773	9258.38
232.846	9245.43
232.918	9254.06
232.99	9270.72
233.062	9312.42
233.135	9321.19
233.207	9277.51
233.279	9318.9
233.351	9350.77
233.424	9355.68
233.496	9334.93
233.568	9418.1
233.64	9387.24
233.713	9408.18
233.785	9405.78
233.857	9420.32
233.929	9369.72
234.001	9444.2
234.074	9507.54
234.146	9436.4
234.218	9433.7
234.29	9429.76
234.362	9428.55
234.434	9388.43
234.507	9353.19
234.579	9297.05
234.651	9280.29
234.723	9318.95
234.795	9342.41
234.867	9331.14
234.939	9387.48
235.012	9411.31
235.084	9412.18
235.156	9449.16
235.228	9430.19
235.3	9417.81
235.372	9432.02
235.444	9487.87
235.516	9406.07
235.588	9412.47
235.66	9427.3
235.732	9403.27
235.804	9429.42
235.876	9473.09
235.948	9529.06
236.02	9548.03
236.092	9568
236.164	9581.53
236.236	9575.66
236.308	9569.88
236.38	9604.27
236.452	9587.98
236.524	9602.67
236.596	9666.05
236.668	9700.97
236.74	9725.57
236.812	9754.95
236.884	9790.31
236.956	9802.59
237.028	9794.75
237.1	9773.56
237.172	9844.62
237.244	9917.88
237.316	9972.36
237.388	9952.76
237.46	9934.89
237.532	9989.46
237.604	9977.09
237.675	10053.11
237.747	10105.24
237.819	10093.3
237.891	10093.39
237.963	10074.23
238.035	10071.05
238.107	9958.25
238.178	10015.89
238.25	10020.56
238.322	10113.8
238.394	10066.07
238.466	10071.65
238.538	10120.87
238.609	10168.65
238.681	10116.62
238.753	10100.72
238.825	10116.38
238.897	10147.54
238.968	10225.22
239.04	10215.97
239.112	10334.75
239.184	10290.81
239.255	10283.25
239.327	10321.97
239.399	10348.51
239.471	10405.64
239.542	10441.77
239.614	10513.69
239.686	10429.8
239.758	10486.17
239.829	10447.86
239.901	10513.04
239.973	10525.9
240.044	10548.49
240.116	10562.9
240.188	10576.63
240.259	10582.46
240.331	10576.92
240.403	10614.35
240.474	10569.1
240.546	10552.14
240.618	10486.32
240.689	10488.2
240.761	10508.1
240.833	10571.95
240.904	10568.28
240.976	10566.69
241.048	10584.62
241.119	10618.4
241.191	10663.83
241.262	10726.87
241.334	10730.49
241.405	10738.25
241.477	10742.01
241.549	10755.69
241.62	10780.99
241.692	10824.26
241.763	10892.4
241.835	10908.55
241.906	10920.74
241.978	10893.27
242.049	10966.9
242.121	11032.43
242.192	11097.39
242.264	11066.07
242.335	11024.14
242.407	11074.4
242.478	11078.88
242.55	11095.89
242.621	11081.19
242.693	11084.57
242.764	11072.08
242.836	11077.53
242.907	11106.49
242.979	11136.75
243.05	11158.54
243.122	11187.6
243.193	11186.92
243.264	11108.42
243.336	11115.12
243.407	11155.31
243.479	11235.7
243.55	11254.2
243.622	11266.49
243.693	11264.81
243.764	11328.08
243.836	11299.03
243.907	11287.9
243.978	11293.78
244.05	11320.04
244.121	11272.53
244.192	11318.22
244.264	11270.17
244.335	11278.5
244.407	11229.59
244.478	11248.05
244.549	11240.82
244.62	11194.31
244.692	11195.47
244.763	11250.02
244.834	11241.82
244.906	11221.24
244.977	11242.36
245.048	11284.73
245.119	11259.91
245.191	11236.29
245.262	11175.67
245.333	11252.33
245.405	11264.77
245.476	11297.44
245.547	11316.72
245.618	11373.39
245.689	11380.18
245.761	11414.84
245.832	11415.56
245.903	11461.2
245.974	11487.8
246.045	11503.08
246.117	11586.89
246.188	11567.23
246.259	11546.99
246.33	11566.95
246.401	11573.93
246.473	11535.42
246.544	11523.95
246.615	11585.84
246.686	11588.87
246.757	11666.41
246.828	11643.95
246.899	11720.6
246.97	11694.81
247.042	11688.45
247.113	11725.04
247.184	11809.49
247.255	11805.83
247.326	11837.3
247.397	11847.52
247.468	11857.4
247.539	11867.38
247.61	11820.05
247.681	11867.76
247.752	11919.57
247.823	11892.1
247.894	11909.64
247.965	11879.14
248.037	11865.59
248.108	11811.85
248.179	11821.97
248.25	11805.58
248.321	11836.04
248.392	11781.67
248.463	11859.99
248.534	11852.32
248.605	11870.54
248.675	11848.61
248.746	11870.06
248.817	11885.05
248.888	11900.09
248.959	11845.96
249.03	11874.11
249.101	11879.17
249.172	11864.96
249.243	11788.81
249.314	11853.97
249.385	11856.48
249.456	11890.31
249.527	11885.78
249.598	11907.13
249.669	11908.34
249.739	11921.69
249.81	11935.76
249.881	11894.99
249.952	11879.95
250.023	11876.62
250.094	11828.42
250.165	11793.47
250.235	11788.75
250.306	11788.51
250.377	11760.12
250.448	11783.68
250.519	11719.44
250.59	11779.83
250.66	11782.24
250.731	11859.5
250.802	11854.53
250.873	11879.36
250.944	11899.02
251.014	11883.6
251.085	11980.39
251.156	12005.07
251.227	12066.58
251.297	12116.42
251.368	12173.15
251.439	12221.31
251.51	12276.94
251.58	12267.68
251.651	12260.07
251.722	12318.49
251.792	12274.24
251.863	12273.66
251.934	12342.59
252.005	12456.73
252.075	12459.53
252.146	12507.05
252.217	12552.27
252.287	12598.93
252.358	12602.21
252.429	12680.59
252.499	12682.57
252.57	12687.1
252.641	12737.14
252.711	12732.6
252.782	12693.17
252.852	12763.75
252.923	12761.91
252.994	12767.22
253.064	12816.67
253.135	12806.64
253.205	12779.55
253.276	12848.34
253.347	12917.03
253.417	12891.43
253.488	12870.89
253.558	12855.61
253.629	12851.8
253.699	12863.81
253.77	12881.55
253.841	12875.23
253.911	12881.07
253.982	12896.73
254.052	12925.9
254.123	12923.92
254.193	12921.94
254.264	13058.46
254.334	13022.69
254.405	12990.97
254.475	12962.63
254.546	12965.47
254.616	13026.02
254.687	13065.02
254.757	13091.87
254.827	13086.13
254.898	13109.61
254.968	13126.87
255.039	13112.93
255.109	13146.63
255.18	13121.37
255.25	13047.09
255.321	13078.42
255.391	13039.76
255.461	13127.11
255.532	13043.76
255.602	13046.75
255.673	13004.23
255.743	12957.86
255.813	12892.97
255.884	12933.08
255.954	12971.74
256.024	13042.99
256.095	13046.12
256.165	13004.09
256.235	13029.45
256.306	13019.61
256.376	13059.67
256.446	13088.64
256.517	13127.64
256.587	13171.9
256.657	13195.66
256.728	13231.33
256.798	13239.58
256.868	13234.27
256.938	13204.1
257.009	13248.69
257.079	13278.62
257.149	13379.37
257.219	13319.45
257.29	13357.05
257.36	13305.42
257.43	13337.09
257.5	13268.5
257.571	13253.55
257.641	13286.86
257.711	13242.32
257.781	13270.66
257.852	13287.2
257.922	13224.53
257.992	13227.57
258.062	13224.43
258.132	13260.35
258.202	13267.15
258.273	13284.55
258.343	13360.81
258.413	13347.41
258.483	13356.91
258.553	13328.99
258.623	13303.35
258.693	13341.09
258.764	13404.77
258.834	13467.25
258.904	13484.99
258.974	13476.22
259.044	13482.58
259.114	13510.97
259.184	13545.05
259.254	13550.12
259.324	13508.47
259.394	13553.97
259.464	13628.5
259.535	13640.45
259.605	13634.67
259.675	13625.94
259.745	13660.17
259.815	13632.45
259.885	13636.21
259.955	13738.89
260.025	13725.77
260.095	13728.91
260.165	13750.65
260.235	13812.78
260.305	13803.53
260.375	13768.43
260.445	13856.84
260.515	13929.97
260.585	13981.46
260.655	13993.17
260.725	14035.93
260.795	14070.11
260.865	14140.01
260.934	14112.19
261.004	14132.77
261.074	14135.04
261.144	14193.13
261.214	14228.08
261.284	14227.45
261.354	14268.47
261.424	14229.24
261.494	14307.28
261.564	14318.28
261.634	14350.81
261.703	14284.19
261.773	14311.53
261.843	14356.79
261.913	14347.63
261.983	14286.99
262.053	14309.45
262.123	14301.26
262.192	14272.05
262.262	14308.97
262.332	14257.92
262.402	14291.86
262.472	14300.68
262.541	14243.22
262.611	14287.23
262.681	14263.75
262.751	14306.46
262.821	14304.01
262.89	14270.12
262.96	14297.35
263.03	14379.93
263.1	14400.7
263.169	14418.49
263.239	14453.87
263.309	14514.56
263.379	14549.32
263.448	14578.29
263.518	14595.88
263.588	14609.09
263.657	14662.98
263.727	14704.44
263.797	14722.13
263.867	14720.01
263.936	14680.38
264.006	14744.88
264.076	14737.12
264.145	14732.69
264.215	14716.97
264.285	14764.36
264.354	14728.49
264.424	14705.5
264.494	14647.75
264.563	14638.02
264.633	14725.5
264.702	14740.35
264.772	14680.53
264.842	14675.57
264.911	14701.07
264.981	14662.36
265.05	14681.31
265.12	14689.93
265.19	14698.23
265.259	14742.04
265.329	14770.72
265.398	14803.12
265.468	14893.4
265.537	14882.75
265.607	14917.45
265.676	14958.38
265.746	14974.24
265.815	15032.13
265.885	15044.57
265.955	15032.23
266.024	15039.07
266.094	14970.58
266.163	15037.53
266.232	15109.59
266.302	15119.76
266.371	15147.38
266.441	15171.24
266.51	15219.78
266.58	15224.7
266.649	15206.38
266.719	15257.33
266.788	15281.38
266.858	15349.73
266.927	15285.48
266.996	15325.39
267.066	15356.24
267.135	15333.54
267.205	15382.89
267.274	15401.36
267.343	15455.58
267.413	15470.72
267.482	15525.57
267.552	15589.15
267.621	15537
267.69	15495.21
267.76	15529.14
267.829	15553.82
267.898	15573.15
267.968	15551.32
268.037	15592.77
268.106	15637.02
268.176	15601.49
268.245	15619.42
268.314	15614.07
268.384	15680.93
268.453	15696.69
268.522	15729.71
268.592	15793.14
268.661	15768.75
268.73	15806.88
268.799	15802.54
268.869	15888.62
268.938	15849.39
269.007	15843.17
269.076	15870.6
269.146	15922.75
269.215	15944.88
269.284	16020.11
269.353	16014.61
269.422	16023.15
269.492	16015.05
269.561	15939.33
269.63	15978.46
269.699	15974.37
269.768	15995.19
269.838	16012.49
269.907	16049.36
269.976	16008.64
270.045	15952.48
270.114	15994.89
270.183	16001.98
270.253	16022.85
270.322	15975.23
270.391	15997.79
270.46	16061.79
270.529	16104.4
270.598	16140.79
270.667	16149.37
270.736	16116.74
270.806	16153.08
270.875	16222.39
270.944	16236.22
271.013	16363.42
271.082	16395.32
271.151	16432.82
271.22	16393.06
271.289	16402.12
271.358	16409.4
271.427	16448.63
271.496	16478.76
271.565	16484.06
271.634	16504.54
271.703	16560.98
271.772	16625.23
271.841	16644.94
271.91	16614.09
271.979	16644.07
272.048	16618.77
272.117	16660.94
272.186	16660.65
272.255	16699.98
272.324	16737.33
272.393	16764.7
272.462	16756.99
272.531	16778.63
272.6	16788.85
272.669	16862.35
272.738	16876.23
272.807	16913.19
272.876	16898.54
272.945	17046.64
273.013	17099.27
273.082	17156.91
273.151	17139.85
273.22	17174.31
273.289	17191.42
273.358	17275.03
273.427	17274.21
273.496	17323.81
273.564	17363.61
273.633	17426.99
273.702	17423.03
273.771	17429.64
273.84	17468.29
273.909	17511.56
273.977	17546.36
274.046	17563.27
274.115	17620.24
274.184	17616.24
274.253	17638.89
274.322	17715.47
274.39	17648.82
274.459	17639.76
274.528	17595.57
274.597	17621.21
274.665	17649.16
274.734	17727.13
274.803	17736
274.872	17759.76
274.94	17761.93
275.009	17990.76
275.078	17981.51
275.147	18008.69
275.215	18037.85
275.284	18100.88
275.353	18115.82
275.421	18079.05
275.49	18179.72
275.559	18190.8
275.627	18219.43
275.696	18241.11
275.765	18280.63
275.833	18302.03
275.902	18352.19
275.971	18434.94
276.039	18526.6
276.108	18580.67
276.177	18615.85
276.245	18621.39
276.314	18658.83
276.383	18717.19
276.451	18542.38
276.52	18592.06
276.588	18682.37
276.657	18748.68
276.725	18759.52
276.794	18793.78
276.863	18875.76
276.931	18832.53
277	18895.13
277.068	18969.78
277.137	19067.17
277.205	19104.56
277.274	19208.27
277.342	19284.84
277.411	19263.35
277.48	19260.41
277.548	19266.77
277.617	19309.95
277.685	19333.81
277.754	19389.71
277.822	19416.21
277.89	19512.16
277.959	19537.46
278.027	19522.57
278.096	19523.77
278.164	19655.92
278.233	19673.37
278.301	19679.87
278.37	19741.7
278.438	19738.52
278.507	19786.52
278.575	19744.83
278.643	19772.97
278.712	19750.52
278.78	19741.41
278.849	19820.1
278.917	19889.84
278.985	19920.29
279.054	19962.03
279.122	20047.18
279.191	20084.39
279.259	20116.43
279.327	20082.65
279.396	20180.34
279.464	20211.08
279.532	20270.5
279.601	20295.57
279.669	20331.09
279.737	20427.13
279.806	20483.09
279.874	20563.77
279.942	20602.32
280.011	20631.96
280.079	20708.15
280.147	20808.88
280.215	20870.81
280.284	20903.72
280.352	20910.66
280.42	20981.7
280.488	20999.25
280.557	21014.86
280.625	21060.75
280.693	21103.69
280.761	21160.03
280.83	21154.87
280.898	21240.95
280.966	21227.94
281.034	21157.08
281.102	21165.27
281.171	21187.83
281.239	21260.81
281.307	21271.42
281.375	21286.99
281.443	21414.48
281.512	21441.71
281.58	21504.91
281.648	21492.62
281.716	21534.89
281.784	21581.06
281.852	21602.7
281.92	21635.77
281.989	21714.39
282.057	21703.79
282.125	21882.96
282.193	21918.1
282.261	21949.38
282.329	21982.98
282.397	22045.59
282.465	22112.25
282.533	22202.87
282.601	22209.81
282.67	22174.04
282.738	22200.5
282.806	22268.95
282.874	22271.8
282.942	22320.87
283.01	22348.12
283.078	22416.81
283.146	22455.9
283.214	22523.59
283.282	22575.18
283.35	22668.28
283.418	22692.73
283.486	22757.85
283.554	22670.61
283.622	22714.1
283.69	22767.03
283.758	22784.58
283.826	22840.17
283.894	22922.91
283.962	23032.96
284.03	23114.88
284.098	23167.14
284.165	23199.78
284.233	23246.79
284.301	23272.06
284.369	23286.24
284.437	23297.47
284.505	23326.31
284.573	23418.99
284.641	23428.2
284.709	23509.9
284.777	23490.8
284.845	23561.9
284.912	23625.89
284.98	23696.68
285.048	23723.5
285.116	23785.52
285.184	23878.27
285.252	23926.69
285.319	23910.1
285.387	23923.65
285.455	23925.92
285.523	23993.2
285.591	24024.78
285.659	24073.16
285.726	24164.96
285.794	24178.27
285.862	24221.49
285.93	24267.79
285.997	24294.52
286.065	24331.27
286.133	24334.12
286.201	24377.43
286.269	24386.16
286.336	24399.04
286.404	24412.88
286.472	24493.31
286.539	24468.66
286.607	24458.29
286.675	24503.06
286.743	24576.96
286.81	24602.2
286.878	24693.34
286.946	24710.13
287.013	24766.51
287.081	24806.22
287.149	24790.45
287.216	24895.29
287.284	24918.69
287.352	24965.39
287.419	25002.74
287.487	25088.88
287.555	25149.55
287.622	25184.24
287.69	25240.94
287.758	25332.01
287.825	25367.71
287.893	25364.38
287.96	25429.46
288.028	25509.09
288.096	25564.36
288.163	25626.48
288.231	25626
288.298	25664.91
288.366	25756.96
288.433	25781.04
288.501	25811.98
288.569	25871.25
288.636	25891.96
288.704	25988.37
288.771	26066.43
288.839	26090.18
288.906	26117.84
288.974	26187.77
289.041	26234.93
289.109	26242.94
289.176	26310.22
289.244	26359.75
289.311	26459.41
289.379	26539.64
289.446	26593.34
289.514	26638.5
289.581	26678.97
289.649	26743.37
289.716	26795.97
289.783	26822.05
289.851	26927.36
289.918	26974.44
289.986	27059.35
290.053	27123.97
290.121	27160.54
290.188	27202.28
290.255	27342.19
290.323	27368.81
290.39	27405.82
290.458	27475.7
290.525	27576.37
290.592	27605.22
290.66	27665.84
290.727	27691.21
290.794	27781.23
290.862	27826.84
290.929	27879.27
290.996	27921.16
291.064	27998.42
291.131	28072.71
291.198	28150.08
291.266	28202.37
291.333	28251.21
291.4	28302.84
291.468	28401.9
291.535	28435.44
291.602	28497.5
291.669	28510.22
291.737	28574.15
291.804	28605.62
291.871	28689.15
291.938	28755.68
292.006	28886.67
292.073	28973.68
292.14	29056.36
292.207	29070.82
292.275	29119.31
292.342	29189.09
292.409	29318.27
292.476	29440.22
292.543	29460.78
292.611	29510.5
292.678	29604.14
292.745	29730.02
292.812	29805.83
292.879	29836.8
292.946	29886.36
293.014	29975.72
293.081	30044.85
293.148	30126.98
293.215	30225.19
293.282	30269.5
293.349	30333.72
293.416	30315.61
293.484	30399.57
293.551	30477.64
293.618	30591.54
293.685	30720.72
293.752	30742.01
293.819	30771.64
293.886	30779.34
293.953	30846.89
294.02	30923.12
294.087	30992.64
294.154	31005.23
294.221	31104.31
294.288	31162.16
294.356	31274.02
294.423	31327.91
294.49	31344.32
294.557	31441.98
294.624	31467.4
294.691	31564.57
294.758	31615.75
294.825	31687.02
294.892	31714.87
294.959	31754.1
295.026	31816.29
295.093	31833.25
295.16	31892.11
295.226	31948.34
295.293	32076.54
295.36	32143.12
295.427	32233.34
295.494	32318.91
295.561	32404.83
295.628	32528.91
295.695	32623
295.762	32683.66
295.829	32764.29
295.896	32878.86
295.963	32946.08
296.03	33030.91
296.096	33108.02
296.163	33195.15
296.23	33296.88
296.297	33382.4
296.364	33429.4
296.431	33496.44
296.498	33543.93
296.564	33685.92
296.631	33752.28
296.698	33744.28
296.765	33867.94
296.832	33878.7
296.899	33887.38
296.965	34000.35
297.032	33978.47
297.099	34084.98
297.166	34157.32
297.233	34197.86
297.299	34229.08
297.366	34283.15
297.433	34337.99
297.5	34418.5
297.566	34473.21
297.633	34516.47
297.7	34574.71
297.767	34626.82
297.833	34701.57
297.9	34765.87
297.967	34747.25
298.033	34830.68
298.1	34987.72
298.167	35003.24
298.234	35082.39
298.3	35163.1
298.367	35205.02
298.434	35273.34
298.5	35281.83
298.567	35320.25
298.634	35371.77
298.7	35474.66
298.767	35547.64
298.834	35647.64
298.9	35673.84
298.967	35696.35
299.033	35779
299.1	35880.9
299.167	35974.68
299.233	36006.42
299.3	36099.1
299.366	36212.18
299.433	36314.7
299.5	36269.61
299.566	36334.74
299.633	36427.34
299.699	36513.79
299.766	36541.5
299.832	36602.13
299.899	36681.55
299.965	36771.05
300.032	36810.55
300.099	36873.47
300.165	36929.2
300.232	36957.16
300.298	37011.77
300.365	37106.71
300.431	37153.23
300.498	37184.2
300.564	37255.32
300.631	37337.18
300.697	37435.66
300.763	37480.08
300.83	37517.57
300.896	37616.46
300.963	37695.85
301.029	37758.3
301.096	37822.94
301.162	37909.9
301.229	37949.82
301.295	37962.35
301.361	38018.29
301.428	38084.85
301.494	38081.21
301.561	38132.69
301.627	38189.46
301.693	38251.47
301.76	38310.04
301.826	38347.63
301.892	38438.46
301.959	38517.63
302.025	38561.44
302.092	38578.15
302.158	38659.84
302.224	38718.91
302.291	38737.32
302.357	38776.23
302.423	38803.48
302.49	38799.69
302.556	38877.91
302.622	38927.4
302.688	39007.21
302.755	39087.96
302.821	39161.3
302.887	39251.88
302.954	39294.34
303.02	39359.39
303.086	39420.84
303.152	39459.66
303.219	39500.76
303.285	39544.92
303.351	39616.6
303.417	39675.1
303.483	39692.3
303.55	39713.43
303.616	39742.2
303.682	39788.64
303.748	39802.48
303.815	39905.7
303.881	40001.17
303.947	40004.28
304.013	40046.26
304.079	40068.51
304.145	40046.75
304.212	40087.66
304.278	40115.16
304.344	40156.7
304.41	40176.82
304.476	40198.69
304.542	40241.45
304.608	40294.61
304.674	40287.07
304.741	40293.3
304.807	40331.2
304.873	40401.66
304.939	40500.17
305.005	40479.96
305.071	40517.95
305.137	40575.92
305.203	40524.65
305.269	40558.23
305.335	40640.52
305.401	40678.28
305.467	40719.25
305.533	40810.82
305.599	40873.03
305.666	40933.44
305.732	40969.3
305.798	41055.34
305.864	41170.16
305.93	41227.7
305.996	41272.03
306.062	41332.11
306.128	41375.32
306.194	41377.41
306.259	41406.96
306.325	41410.76
306.391	41499.9
306.457	41571.54
306.523	41630.16
306.589	41763.07
306.655	41783.49
306.721	41761.95
306.787	41762
306.853	41846.79
306.919	41825.93
306.985	41838.86
307.051	41872.06
307.117	41900.26
307.183	41920.29
307.248	41878.57
307.314	41927.39
307.38	41976.83
307.446	42028.86
307.512	42028.95
307.578	42081.31
307.644	42108.92
307.709	42159.44
307.775	42190.36
307.841	42215.11
307.907	42256
307.973	42223.27
308.039	42253.95
308.104	42324.99
308.17	42375.93
308.236	42360.13
308.302	42410.93
308.368	42422.65
308.433	42459.07
308.499	42479.63
308.565	42471.46
308.631	42510.26
308.696	42475.93
308.762	42476.32
308.828	42499.96
308.894	42483.92
308.959	42459.51
309.025	42482.17
309.091	42510.18
309.156	42527.06
309.222	42583.17
309.288	42585.51
309.354	42552.93
309.419	42591.6
309.485	42578.95
309.551	42630.5
309.616	42638.38
309.682	42678.93
309.748	42698.72
309.813	42719
309.879	42728.48
309.945	42732.18
310.01	42754.21
310.076	42800.98
310.141	42829.72
310.207	42825.83
310.273	42891.42
310.338	42946.17
310.404	42922.93
310.469	42911.6
310.535	42911.16
310.601	42870.5
310.666	42922.93
310.732	43002.78
310.797	42997.96
310.863	43008.27
310.928	43015.13
310.994	43058.51
311.059	43078.45
311.125	43097.61
311.191	43164.79
311.256	43173.98
311.322	43243.19
311.387	43225.97
311.453	44150.31
311.518	44156.58
311.584	44195.54
311.649	44239.66
311.715	44246.27
311.78	44296.9
311.846	44301.86
311.911	44363.73
311.976	44403.75
312.042	44378.41
312.107	44370.39
312.173	44373.65
312.238	44386.44
312.304	44429.97
312.369	44442.09
312.434	44430.85
312.5	44464.9
312.565	44396.16
312.631	44449.12
312.696	44441.19
312.761	44488.86
312.827	43608
312.892	43709.21
312.958	43728.57
313.023	43750.61
313.088	43784.56
313.154	43772.35
313.219	43787.24
313.284	43786.65
313.35	43798.67
313.415	43811.6
313.48	43840.11
313.546	43898.92
313.611	43974.67
313.676	43961.58
313.741	43958.37
313.807	44020.69
313.872	44052.55
313.937	44113.36
314.003	44179.77
314.068	44221.61
314.133	44274.74
314.198	44286.96
314.264	44253.03
314.329	44252.3
314.394	44270.01
314.459	44306.89
314.525	44408.28
314.59	44433.72
314.655	44414.21
314.72	44480.14
314.785	44504.42
314.851	44497.26
314.916	44459.95
314.981	44431.49
315.046	44435.52
315.111	44440.58
315.176	44434.26
315.242	44462.14
315.307	44486.61
315.372	44453.18
315.437	44451.33
315.502	44442.77
315.567	44503.16
315.632	44490.12
315.698	44523.84
315.763	44536.98
315.828	44518.79
315.893	44509.49
315.958	44511.24
316.023	44515.86
316.088	44467.35
316.153	44428.14
316.218	44438.84
316.283	44410.88
316.348	44378.29
316.413	44389.52
316.479	44350.76
316.544	44255.81
316.609	44168
316.674	44047.85
316.739	43920.33
316.804	43817.12
316.869	43684.68
316.934	43538.69
316.999	43419.43
317.064	43230.54
317.129	43060.21
317.194	42925.46
317.259	42752.33
317.324	42571.89
317.389	42402.84
317.454	42248.46
317.518	42103.15
317.583	41977.16
317.648	41857.66
317.713	41698.93
317.778	41454.3
317.843	41318.72
317.908	41146.04
317.973	40965.91
318.038	40829.53
318.103	40672.09
318.168	40515.84
318.233	40371.36
318.297	40149.79
318.362	39973.44
318.427	39786.52
318.492	39655.66
318.557	39438.91
318.622	39296.31
318.687	39163.16
318.751	38976.85
318.816	38803.72
318.881	38627.37
318.946	38385.73
319.011	38169.61
319.075	37969.87
319.14	37800.18
319.205	37584.53
319.27	37401.46
319.335	37187.18
319.399	36976.33
319.464	36815.61
319.529	36563.34
319.594	36364.22
319.658	36205.29
319.723	35986.34
319.788	35826.72
319.853	35560.46
319.917	35376.3
319.982	35109.56
320.047	34884.53
320.112	34712.21
320.176	34463.17
320.241	34256.55
320.306	34067.92
320.37	33846.52
320.435	33671.05
320.5	33474.58
320.564	33247.52
320.629	33023.37
320.694	32827.71
320.758	32598.05
320.823	32358.81
320.888	32181.51
320.952	31921.46
321.017	31681.49
321.082	31469.31
321.146	31255.33
321.211	31060.09
321.275	30842.46
321.34	30610.34
321.405	30372.47
321.469	30121.38
321.534	29892.26
321.598	29639.63
321.663	29444.06
321.727	29244.27
321.792	28964.26
321.857	28727.57
321.921	28507.09
321.986	28273.14
322.05	27993.57
322.115	27771.03
322.179	27526.57
322.244	27239.8
322.308	27028.73
322.373	26779.57
322.437	26538.83
322.502	26346.96
322.566	26090.27
322.631	25864.4
322.695	25625.7
322.76	25380.1
322.824	25155.64
322.889	24912.96
322.953	24660.22
323.018	24337.65
323.082	24023.62
323.146	23752.29
323.211	23470.04
323.275	23214.23
323.34	22958.72
323.404	22740.02
323.468	22484.65
323.533	22229.46
323.597	21975.82
323.662	21698.62
323.726	21473.35
323.79	21206.74
323.855	20876.02
323.919	20603.35
323.983	20346.64
324.048	19967.96
324.112	20151.34
324.177	19352.47
324.241	18296.92
324.305	17266.74
324.37	16248.19
324.434	15262.16
324.498	14991.12
324.562	14690.31
324.627	14347.15
324.691	14002.61
324.755	13612.15
324.82	13169.03
324.884	12707.85
324.948	12247.73
325.012	11680.4
325.077	10972.74
