Data from 20250701_urea_2M_exp3_MAYP1162681_06-29-48-582.txt Node
Date: Wed Jul 02 06:29:48 BST 2025
User: adleo
Spectrometer: MAYP116268
Trigger mode: 0
Integration Time (sec): 4.000000E0
Scans to average: 1
Electric dark correction enabled: true
Nonlinearity correction enabled: true
Boxcar width: 10
XAxis mode: Wavelengths
Number of Pixels in Spectrum: 2068
>>>>>Begin Spectral Data<<<<<
179.565	3686.93
179.642	3879.58
179.718	4030.42
179.795	4162.6
179.871	4276.74
179.948	4342.39
180.024	4411.56
180.101	4492.41
180.177	4545.82
180.254	4629.45
180.33	4710.44
180.407	4975.95
180.483	5261.08
180.56	5556.32
180.636	5821.46
180.712	5780.47
180.789	5812.42
180.865	5854.36
180.942	5886.15
181.018	5921.36
181.095	5972.68
181.171	5988.32
181.248	5992.3
181.324	6044.53
181.4	6068.71
181.477	6102.74
181.553	6143.12
181.63	6215.11
181.706	6267.58
181.782	6292.76
181.859	6288.49
181.935	6305.49
182.011	6298.62
182.088	6355.85
182.164	6414.54
182.24	6465.69
182.317	6501.74
182.393	6500.15
182.469	6552
182.546	6597.42
182.622	6607.21
182.698	6584.45
182.775	6624.07
182.851	6672.08
182.927	6644.33
183.003	6629.98
183.08	6613.27
183.156	6645.05
183.232	6636.65
183.308	6595.31
183.385	6624.97
183.461	6679.62
183.537	6676.5
183.613	6716.7
183.69	6690.57
183.766	6658.47
183.842	6683.6
183.918	6695.99
183.995	6736.09
184.071	6743.92
184.147	6729.17
184.223	6693.13
184.299	6743.05
184.375	6705.16
184.452	6728.23
184.528	6856.99
184.604	6895.21
184.68	6935.12
184.756	6963.47
184.832	6978.03
184.908	6998.14
184.985	6989.64
185.061	6937.82
185.137	6972.8
185.213	6932.79
185.289	6938.21
185.365	6918.67
185.441	6913.63
185.517	6959.96
185.593	6949.05
185.669	6937.19
185.745	6969.09
185.822	7028.71
185.898	6995.98
185.974	7031.32
186.05	7001.48
186.126	6930.56
186.202	6904.2
186.278	6891.8
186.354	6852.6
186.43	6873.07
186.506	6867.93
186.582	6870.91
186.658	6891.94
186.734	6822.84
186.81	6832.77
186.886	6837
186.962	6873.36
187.038	6856.79
187.114	6830.3
187.19	6857.25
187.266	6827.29
187.341	6828.92
187.417	6804.48
187.493	6808.94
187.569	6817.74
187.645	6800.2
187.721	6755.23
187.797	6783.9
187.873	6797.21
187.949	6779.3
188.025	6756.47
188.101	6763.86
188.176	6780.19
188.252	6766.03
188.328	6792.9
188.404	6795.93
188.48	6779.7
188.556	6755.92
188.632	6752.94
188.707	6758.85
188.783	6746.74
188.859	6727.45
188.935	6689.93
189.011	6717.26
189.086	6693.16
189.162	6666.54
189.238	6652.72
189.314	6643.83
189.39	6625.92
189.465	6605.65
189.541	6666.32
189.617	6616.91
189.693	6599.63
189.768	6612.6
189.844	6695.3
189.92	6669.34
189.996	6695.23
190.071	6735.86
190.147	6728.9
190.223	6761.81
190.298	6733.56
190.374	6690.48
190.45	6735.17
190.526	6761.64
190.601	6740.89
190.677	6745.98
190.753	6837.56
190.828	6853.4
190.904	6909.08
190.98	6962.04
191.055	7001.39
191.131	6972.17
191.207	7043.21
191.282	7078.41
191.358	7043.87
191.433	6990.27
191.509	7029.58
191.585	7021.7
191.66	7022.76
191.736	7051.05
191.811	7017.56
191.887	7069.23
191.963	7153.32
192.038	7167.44
192.114	7171.86
192.189	7187.19
192.265	7178.11
192.34	7108.05
192.416	7102.48
192.491	7087.44
192.567	7093.93
192.642	7095.71
192.718	7094.03
192.793	7048.81
192.869	7035.6
192.944	7048.28
193.02	7075.82
193.095	7096.04
193.171	7112.14
193.246	7111.66
193.322	7105.12
193.397	7107.86
193.473	7061.38
193.548	6991.89
193.624	7014.77
193.699	7008.95
193.775	7062.94
193.85	7064.72
193.925	7088.22
194.001	7092.73
194.076	7064.62
194.152	7028.86
194.227	6999.79
194.302	6967.18
194.378	6981.69
194.453	6972.33
194.529	7013.31
194.604	6964.93
194.679	6943.31
194.755	6882.42
194.83	6927.91
194.905	6920.03
194.981	6953.52
195.056	6925.72
195.131	6946.66
195.207	6939.69
195.282	6908.18
195.357	6840.93
195.433	6896.71
195.508	6856.68
195.583	6877.1
195.659	6927.27
195.734	6947.26
195.809	6944.28
195.884	6977.65
195.96	6977.94
196.035	7027.81
196.11	7010.89
196.185	7055.62
196.261	7065.37
196.336	7168.96
196.411	7117.47
196.486	7138.13
196.561	7115.4
196.637	7151.71
196.712	7209.35
196.787	7221.32
196.862	7269.03
196.937	7304.05
197.013	7321.07
197.088	7356.53
197.163	7426.64
197.238	7489.44
197.313	7491.98
197.388	7542.17
197.464	7639.7
197.539	7678.82
197.614	7659.5
197.689	7705.04
197.764	7755.78
197.839	7819.92
197.914	7799.48
197.989	7871.08
198.065	7909.11
198.14	8076.05
198.215	8161.95
198.29	8197.47
198.365	8236.38
198.44	8273.75
198.515	8366.42
198.59	8418.91
198.665	8509.8
198.74	8535.36
198.815	8535.36
198.89	8609.45
198.965	8707.17
199.04	8696.78
199.115	8750.13
199.19	8884.24
199.265	8891.07
199.34	8927.46
199.415	9041.64
199.49	9109.34
199.565	9141.4
199.64	9233.54
199.715	9225.64
199.79	9251.35
199.865	9276.48
199.94	9275.37
200.015	9382.07
200.09	9400.13
200.165	9419.15
200.24	9437.84
200.315	9575.1
200.39	9620.12
200.464	9640.49
200.539	9641.6
200.614	9696.54
200.689	9773.6
200.764	9801.15
200.839	9859.59
200.914	9875
200.989	9835.35
201.063	9886.4
201.138	9826.34
201.213	9817.77
201.288	9750.83
201.363	9769.23
201.438	9766.92
201.512	9818.81
201.587	9757.88
201.662	9765.69
201.737	9806.53
201.812	9833.84
201.886	9722.58
201.961	9759.01
202.036	9726.8
202.111	9714.8
202.186	9612.29
202.26	9554.39
202.335	9478.39
202.41	9456.82
202.485	9401.07
202.559	9341.08
202.634	9251.33
202.709	9287.03
202.784	9226.13
202.858	9225.4
202.933	9156.46
203.008	9137.97
203.082	9078.23
203.157	9073.52
203.232	8932.69
203.306	8857.95
203.381	8747.66
203.456	8670.84
203.53	8588.67
203.605	8514.73
203.68	8438.34
203.754	8419.01
203.829	8372.71
203.904	8305.6
203.978	8265.51
204.053	8275.71
204.127	8231.21
204.202	8220.29
204.277	8158.1
204.351	8131.15
204.426	8108.39
204.5	8085.11
204.575	7960.2
204.65	7988.98
204.724	7965.44
204.799	7991.92
204.873	7977.48
204.948	7972.19
205.022	7931.9
205.097	7900.33
205.171	7941.49
205.246	7971.8
205.32	7968.34
205.395	7961.46
205.469	7934.22
205.544	7953.13
205.618	7895.21
205.693	7937.59
205.767	7899.36
205.842	7973.35
205.916	7952.39
205.991	7919.92
206.065	7938.3
206.14	7997.01
206.214	7975.64
206.289	7952.2
206.363	7995.73
206.438	8007.42
206.512	8034.07
206.586	8101.06
206.661	8133.7
206.735	8063.42
206.81	8066.65
206.884	8122.91
206.958	8085.45
207.033	8144.87
207.107	8173.76
207.181	8279.09
207.256	8251.62
207.33	8313.86
207.405	8353.64
207.479	8423.49
207.553	8443.98
207.628	8389.69
207.702	8431.45
207.776	8409.41
207.851	8413.84
207.925	8463.03
207.999	8448.21
208.073	8444.46
208.148	8451.63
208.222	8413.75
208.296	8521.81
208.371	8572.51
208.445	8604.71
208.519	8694.39
208.593	8732.94
208.668	8713.63
208.742	8724.33
208.816	8736.64
208.89	8780.69
208.965	8772.17
209.039	8792.97
209.113	8851.3
209.187	8919.73
209.261	8901.11
209.336	8974.61
209.41	9049.52
209.484	9051.69
209.558	9129.15
209.632	9173.04
209.707	9211.13
209.781	9280.4
209.855	9333.71
209.929	9394.42
210.003	9416.52
210.077	9419.6
210.151	9575.66
210.226	9691.79
210.3	9774.91
210.374	9853.62
210.448	9876.74
210.522	9917.69
210.596	9951.26
210.67	9985.89
210.744	10136.08
210.818	10248.99
210.892	10314.65
210.966	10294.52
211.041	10347.61
211.115	10332.53
211.189	10410.52
211.263	10464.71
211.337	10487.74
211.411	10542.28
211.485	10522.52
211.559	10551.28
211.633	10559.08
211.707	10449.64
211.781	10472.44
211.855	10358.4
211.929	10327.1
212.003	10259.4
212.077	10284.02
212.151	10326.28
212.225	10356.05
212.299	10326.65
212.373	10278.44
212.447	10262.82
212.52	10358.89
212.594	10366.65
212.668	10405.86
212.742	10355.17
212.816	10330.6
212.89	10308.73
212.964	10294.18
213.038	10291.38
213.112	10342.99
213.186	10382.97
213.26	10305.26
213.333	10146.89
213.407	10162.54
213.481	10164.17
213.555	10191.61
213.629	10148.2
213.703	10087.88
213.777	10072.75
213.85	9995.86
213.924	10105.91
213.998	10090.92
214.072	10050.98
214.146	9994.37
214.219	9973.9
214.293	9949.05
214.367	9947.75
214.441	9969.04
214.515	9919.7
214.588	9829.54
214.662	9692.66
214.736	9612.29
214.81	9630.34
214.883	9648.87
214.957	9590.86
215.031	9534.6
215.105	9442.95
215.178	9373.85
215.252	9331.53
215.326	9224.11
215.4	9144.71
215.473	8963.86
215.547	8880.94
215.621	8817.02
215.694	8812.01
215.768	8710.93
215.842	8639.23
215.915	8562.38
215.989	8446.8
216.063	8382.81
216.136	8366.5
216.21	8339.13
216.284	8346.25
216.357	8317.67
216.431	8272.44
216.504	8270.13
216.578	8323.17
216.652	8337.01
216.725	8315.84
216.799	8324.5
216.873	8312.53
216.946	8314.59
217.02	8271.9
217.093	8235.73
217.167	8142.06
217.24	8061.31
217.314	8027.7
217.387	7983.92
217.461	7936.11
217.535	7958.96
217.608	7897.49
217.682	7863.92
217.755	7877.72
217.829	7818.69
217.902	7801.33
217.976	7780.27
218.049	7736.08
218.123	7660.49
218.196	7663.95
218.27	7627.64
218.343	7552.11
218.417	7548.5
218.49	7524.13
218.563	7568.11
218.637	7579.75
218.71	7648.58
218.784	7672.2
218.857	7701.38
218.931	7725.84
219.004	7737.09
219.077	7754.89
219.151	7771.23
219.224	7764.79
219.298	7761.86
219.371	7810.53
219.444	7771.55
219.518	7784.29
219.591	7798.81
219.665	7903.78
219.738	7914.31
219.811	7892.78
219.885	7942.9
219.958	7970.27
220.031	7972.67
220.105	7996.2
220.178	8002.06
220.251	7973.63
220.325	7996.53
220.398	8017.07
220.471	8042.99
220.544	8081.57
220.618	8058.38
220.691	8088.68
220.764	8106.04
220.838	8129.9
220.911	8115.75
220.984	8204.38
221.057	8240.41
221.131	8265.52
221.204	8170.65
221.277	8237.26
221.35	8362.29
221.424	8352.24
221.497	8367.44
221.57	8394.03
221.643	8417.96
221.716	8464.4
221.79	8467
221.863	8475.66
221.936	8482.78
222.009	8491.34
222.082	8518.2
222.155	8522.87
222.229	8583.86
222.302	8621.05
222.375	8629.86
222.448	8667.11
222.521	8673.22
222.594	8674.76
222.667	8647.78
222.74	8703.16
222.814	8695.41
222.887	8678.51
222.96	8733.62
223.033	8774.45
223.106	8803.6
223.179	8837.12
223.252	8844.48
223.325	8880.91
223.398	8892.47
223.471	8925.44
223.544	8949.98
223.617	8958.45
223.69	8983.91
223.763	8948.13
223.837	8967.54
223.91	8997.43
223.983	8950.9
224.056	8919.81
224.129	8945.7
224.202	9006.46
224.275	8995.44
224.348	8968.29
224.42	8937.15
224.493	8877.22
224.566	8856.13
224.639	8869.27
224.712	8841.82
224.785	8835.08
224.858	8824.49
224.931	8815.54
225.004	8771.17
225.077	8767.56
225.15	8682.35
225.223	8685.24
225.296	8769.61
225.369	8713.98
225.442	8682.88
225.514	8702.7
225.587	8720.99
225.66	8720.7
225.733	8714.68
225.806	8723.54
225.879	8719.79
225.952	8689.96
226.025	8730.38
226.097	8777.72
226.17	8771.7
226.243	8707.71
226.316	8698.94
226.389	8705.44
226.461	8720.95
226.534	8746.93
226.607	8742.69
226.68	8825.3
226.753	8819.14
226.825	8731.73
226.898	8786.36
226.971	8788.09
227.044	8804.12
227.117	8810.61
227.189	8834.54
227.262	8871.23
227.335	8888.95
227.407	8879.95
227.48	8909.59
227.553	8928.46
227.626	8906.93
227.698	8910.3
227.771	8952.25
227.844	8932.71
227.916	8948.12
227.989	8909.99
228.062	8904.26
228.134	8988.62
228.207	8990.84
228.28	8980.54
228.352	8995.94
228.425	9002.15
228.498	9046.16
228.57	9029.51
228.643	9081.03
228.716	9081.32
228.788	9070.34
228.861	9065
228.934	9132.05
229.006	9144.23
229.079	9139.22
229.151	9128.29
229.224	9095.38
229.296	9124.5
229.369	9225.25
229.442	9272.16
229.514	9249.02
229.587	9296.24
229.659	9222.71
229.732	9235.42
229.804	9275.52
229.877	9358.56
229.949	9388.08
230.022	9442.81
230.094	9442.52
230.167	9434.67
230.239	9385.09
230.312	9373.63
230.384	9449.54
230.457	9445.45
230.529	9454.11
230.602	9462.64
230.674	9475.88
230.747	9519.19
230.819	9548.18
230.892	9436.99
230.964	9436.17
231.037	9470.29
231.109	9458.83
231.181	9498.5
231.254	9467.68
231.326	9457.04
231.399	9429.43
231.471	9410.36
231.544	9323.76
231.616	9370.31
231.688	9385
231.761	9379.85
231.833	9368.54
231.905	9275.68
231.978	9266.96
232.05	9251.08
232.122	9251.08
232.195	9223.34
232.267	9263.21
232.339	9237.4
232.412	9304.41
232.484	9284.28
232.556	9255.98
232.629	9322.94
232.701	9340.42
232.773	9352.12
232.846	9342.88
232.918	9350.63
232.99	9368.36
233.062	9416.13
233.135	9431.68
233.207	9391.86
233.279	9435.27
233.351	9470.52
233.424	9477.16
233.496	9458.86
233.568	9548.49
233.64	9511.03
233.713	9529.28
233.785	9523.75
233.857	9541.47
233.929	9485.76
234.001	9553.07
234.074	9627.97
234.146	9555.52
234.218	9549.89
234.29	9545.36
234.362	9533.91
234.434	9486.18
234.507	9449.72
234.579	9398
234.651	9380.42
234.723	9407.25
234.795	9426.94
234.867	9420.35
234.939	9478.09
235.012	9496.43
235.084	9496.19
235.156	9541.06
235.228	9520.99
235.3	9510.87
235.372	9521.52
235.444	9581.99
235.516	9497.69
235.588	9499.85
235.66	9524.6
235.732	9498.74
235.804	9697.61
235.876	9745.46
235.948	9809.72
236.02	9828.07
236.092	9841.79
236.164	9851.81
236.236	9855.03
236.308	9852.72
236.38	9878.05
236.452	9860.71
236.524	9883.54
236.596	9943.54
236.668	9971.82
236.74	10002.44
236.812	10027.15
236.884	10060.1
236.956	10076.96
237.028	10067.58
237.1	10051.15
237.172	10120.29
237.244	10197.36
237.316	10084.48
237.388	10070.42
237.46	10055.53
237.532	10112.66
237.604	10104.77
237.675	10174.04
237.747	10221.6
237.819	10210.23
237.891	10219.05
237.963	10209.89
238.035	10206.33
238.107	10096.09
238.178	10160.8
238.25	10163.89
238.322	10258.67
238.394	10212.67
238.466	10210.74
238.538	10264.44
238.609	10308.95
238.681	10254.36
238.753	10228.58
238.825	10239.9
238.897	10267.02
238.968	10338.87
239.04	10314.78
239.112	10427.6
239.184	10395.22
239.255	10393.15
239.327	10422.63
239.399	10449.08
239.471	10493.88
239.542	10525.19
239.614	10603.91
239.686	10525.42
239.758	10582.56
239.829	10539.13
239.901	10608.27
239.973	10621.9
240.044	10648.55
240.116	10658.57
240.188	10672.78
240.259	10697.84
240.331	10694.85
240.403	10736.43
240.474	10691.65
240.546	10688.86
240.618	10632.67
240.689	10629.74
240.761	10649.2
240.833	10725.24
240.904	10718.83
240.976	10725.34
241.048	10744.37
241.119	10769.58
241.191	10815.64
241.262	10884.18
241.334	10897
241.405	10899.89
241.477	10906.63
241.549	10923.84
241.62	10955.16
241.692	11002.53
241.763	11056.94
241.835	11076.75
241.906	11092.99
241.978	11063.98
242.049	11131.92
242.121	11194.18
242.192	11262.51
242.264	11232.4
242.335	11184.59
242.407	11233.65
242.478	11233.46
242.55	11254.28
242.621	11246.56
242.693	11248.3
242.764	11234.32
242.836	11235.14
242.907	11269.41
242.979	11302.18
243.05	11317.31
243.122	11341.5
243.193	11339.96
243.264	11270.03
243.336	11270.32
243.407	11307.43
243.479	11391.29
243.55	11413.85
243.622	11427.39
243.693	11423.92
243.764	11488.5
243.836	11464.31
243.907	11455.93
243.978	11463.64
244.05	11491.78
244.121	11438.87
244.192	11479.84
244.264	11431.01
244.335	11436.22
244.407	11385.42
244.478	11395.64
244.549	11398
244.62	11352.65
244.692	11347.4
244.763	11396.36
244.834	11388.79
244.906	11364.5
244.977	11382.24
245.048	11425.77
245.119	11401.04
245.191	11381.71
245.262	11320.75
245.333	11399.73
245.405	11422.19
245.476	11456.89
245.547	11474.39
245.618	11535.25
245.689	11544.31
245.761	11583.16
245.832	11594.05
245.903	11636.85
245.974	11667.94
246.045	11673.14
246.117	11760.72
246.188	11748.86
246.259	11730.55
246.33	11749.73
246.401	11758.65
246.473	11720.96
246.544	11708.81
246.615	11770.94
246.686	11775.23
246.757	11846.6
246.828	11820.53
246.899	11891.49
246.97	11855.58
247.042	11844.3
247.113	11883.44
247.184	11975.32
247.255	11974.21
247.326	12001.45
247.397	12012.44
247.468	12027.04
247.539	12041.7
247.61	11994.84
247.681	12041.45
247.752	12097.45
247.823	12068.73
247.894	12093.07
247.965	12068.25
248.037	12057.89
248.108	12000.96
248.179	12004.67
248.25	11998.84
248.321	12031.42
248.392	11974.64
248.463	12061.01
248.534	12056.14
248.605	12085.93
248.675	12053.44
248.746	12075.18
248.817	12095.13
248.888	12114.61
248.959	12056.53
249.03	12082.03
249.101	12090.65
249.172	12076.05
249.243	12006.31
249.314	12082.03
249.385	12080.63
249.456	12120.4
249.527	12111.19
249.598	12137.22
249.669	12146.18
249.739	12166.38
249.81	12185.95
249.881	12150.09
249.952	12141.46
250.023	12143.24
250.094	12083.32
250.165	12057.1
250.235	12054.16
250.306	12059.27
250.377	12024.66
250.448	12052.57
250.519	11992.36
250.59	12051.46
250.66	12054.07
250.731	12122.99
250.802	12116.58
250.873	12141.4
250.944	12153.45
251.014	12145.16
251.085	12240.99
251.156	12272.9
251.227	12323.18
251.297	12370.28
251.368	12422.04
251.439	12464.22
251.51	12521.73
251.58	12513.59
251.651	12510.26
251.722	12562.18
251.792	12512.82
251.863	12526.8
251.934	12594.57
252.005	12705.05
252.075	12715.22
252.146	12764.73
252.217	12812.59
252.287	12860.85
252.358	12861.04
252.429	12937.83
252.499	12933.88
252.57	12940.63
252.641	12978.76
252.711	12977.99
252.782	12940.1
252.852	13013.23
252.923	13015.83
252.994	13026.24
253.064	13068.9
253.135	13051.16
253.205	13026.68
253.276	13106.94
253.347	13163.77
253.417	13136.39
253.488	13126.36
253.558	13110.79
253.629	13112.72
253.699	13137.69
253.77	13157.41
253.841	13159.57
253.911	13173.89
253.982	13193.7
254.052	13224.31
254.123	13232.22
254.193	13240.85
254.264	13374.43
254.334	13345.94
254.405	13313.16
254.475	13281.87
254.546	13292.38
254.616	13359.38
254.687	13390.14
254.757	13407.01
254.827	13406.29
254.898	13433.24
254.968	13436.13
255.039	13420.12
255.109	13447.51
255.18	13409.57
255.25	13345.36
255.321	13370.23
255.391	13315.81
255.461	13403.3
255.532	13318.51
255.602	13318.51
255.673	13265.77
255.743	13226.92
255.813	13157.21
255.884	13201.61
255.954	13232.36
256.024	13299.08
256.095	13302.22
256.165	13261.77
256.235	13284.43
256.306	13272.91
256.376	13312.53
256.446	13348.25
256.517	13385.42
256.587	13436.42
256.657	13462.41
256.728	13482.27
256.798	13498.75
256.868	13507.33
256.938	13472.19
257.009	13521.31
257.079	13553.27
257.149	13649.98
257.219	13587.84
257.29	13620.33
257.36	13569.52
257.43	13615.07
257.5	13548.21
257.571	13532.74
257.641	13570.53
257.711	13539.97
257.781	13579.69
257.852	13606.44
257.922	13551.01
257.992	13547.54
258.062	13535.48
258.132	13572.6
258.202	13572.75
258.273	13588.17
258.343	13664.39
258.413	13653.64
258.483	13659.86
258.553	13627.89
258.623	13604.8
258.693	13633.15
258.764	13706.81
258.834	13773.57
258.904	13792.09
258.974	13779.94
259.044	13794.01
259.114	13828.34
259.184	13852.3
259.254	13861.84
259.324	13808.28
259.394	13856.63
259.464	13944.46
259.535	13952.23
259.605	13944.32
259.675	13951.21
259.745	13983.27
259.815	13962.01
259.885	13964.47
259.955	14071.09
260.025	14059.91
260.095	14067.29
260.165	14100.02
260.235	14160.08
260.305	14148.17
260.375	14111.87
260.445	14208
260.515	14278.52
260.585	14321.71
260.655	14333.91
260.725	14367.7
260.795	14404.38
260.865	14466.33
260.934	14434.32
261.004	14467.24
261.074	14473.75
261.144	14525.62
261.214	14555.94
261.284	14554.35
261.354	14594.22
261.424	14554.74
261.494	14635.54
261.564	14642.82
261.634	14677.67
261.703	14606.42
261.773	14633.66
261.843	14671.74
261.913	14664.8
261.983	14598.52
262.053	14620.16
262.123	14619.73
262.192	14582.51
262.262	14628.4
262.332	14585.45
262.402	14614.52
262.472	14621.85
262.541	14563.27
262.611	14607.24
262.681	14588.29
262.751	14627.58
262.821	14631.77
262.89	14602.85
262.96	14614.95
263.03	14690.92
263.1	14706.2
263.169	14727.7
263.239	14756.23
263.309	14822.95
263.379	14859.05
263.448	14884.84
263.518	14912.17
263.588	14925.14
263.657	14993.06
263.727	15018.17
263.797	15029.21
263.867	15026.56
263.936	14986.36
264.006	15044.25
264.076	15042.03
264.145	15039.43
264.215	15027.86
264.285	15075.78
264.354	15029.16
264.424	15016.29
264.494	14972.43
264.563	14957.63
264.633	15040.15
264.702	15058.28
264.772	15001.01
264.842	14990.51
264.911	15025.45
264.981	14986.94
265.05	14999.96
265.12	14997.84
265.19	15014.66
265.259	15056.21
265.329	15090.29
265.398	15121.14
265.468	15221.93
265.537	15223.23
265.607	15261.26
265.676	15300.55
265.746	15316.84
265.815	15381.24
265.885	15392.09
265.955	15370.73
266.024	15380.37
266.094	15313.03
266.163	15381.38
266.232	15451.9
266.302	15460.62
266.371	15483.23
266.441	15502.85
266.51	15550.32
266.58	15558.81
266.649	15546.28
266.719	15608.07
266.788	15637.13
266.858	15708.56
266.927	15642.43
266.996	15665.67
267.066	15690.06
267.135	15661.76
267.205	15710.15
267.274	15725.77
267.343	15785.63
267.413	15809.16
267.482	15872.68
267.552	15940.41
267.621	15892.06
267.69	15837.55
267.76	15866.95
267.829	15886.52
267.898	15905.08
267.968	15888.45
268.037	15923.49
268.106	15971.01
268.176	15937.13
268.245	15955.59
268.314	15958.39
268.384	16019.84
268.453	16046.79
268.522	16072.38
268.592	16142.89
268.661	16122.89
268.73	16163.09
268.799	16147.14
268.869	16229.27
268.938	16180.92
269.007	16176.83
269.076	16196.59
269.146	16262.82
269.215	16288.5
269.284	16373.28
269.353	16372.17
269.422	16381.04
269.492	16379.69
269.561	16294.72
269.63	16328.79
269.699	16315.73
269.768	16328.31
269.838	16344.99
269.907	16373.61
269.976	16342.57
270.045	16281.65
270.114	16317.36
270.183	16311.77
270.253	16354.48
270.322	16300.69
270.391	16325.7
270.46	16389.22
270.529	16439.06
270.598	16475.3
270.667	16491.45
270.736	16454.96
270.806	16495.59
270.875	16550.44
270.944	16557.62
271.013	16687.85
271.082	16714.79
271.151	16758.07
271.22	16718.41
271.289	16735.42
271.358	16748.82
271.427	16793.45
271.496	16825.21
271.565	16818.03
271.634	16837.07
271.703	16951.09
271.772	17029.07
271.841	17041.84
271.91	17004.97
271.979	17029.22
272.048	17003.96
272.117	17048.54
272.186	17055.91
272.255	17099.92
272.324	17143.1
272.393	17187.05
272.462	17184.3
272.531	17209.27
272.6	17226.81
272.669	17302.86
272.738	17323.34
272.807	17359.73
272.876	17337.9
272.945	17485.17
273.013	17553.46
273.082	17633.27
273.151	17547.97
273.22	17584.45
273.289	17612.36
273.358	17709.8
273.427	17713.08
273.496	17764.5
273.564	17798.96
273.633	17852.26
273.702	17831.01
273.771	17838.33
273.84	17868.93
273.909	17905.65
273.977	17945.99
274.046	17947.39
274.115	18007.63
274.184	18004.45
274.253	18020.93
274.322	18105.02
274.39	18035.77
274.459	18028.31
274.528	17975.73
274.597	17993.22
274.665	18014.67
274.734	18087.29
274.803	18088.79
274.872	18117.94
274.94	18114.28
275.009	18341.87
275.078	18334.64
275.147	18380.52
275.215	18417.38
275.284	18477.52
275.353	18484.95
275.421	18444.27
275.49	18545.52
275.559	18549.81
275.627	18572.03
275.696	18583.06
275.765	18629.32
275.833	18655.06
275.902	18704.5
275.971	18786.38
276.039	18882.03
276.108	18940.34
276.177	18980.34
276.245	18985.31
276.314	19014.61
276.383	19081.16
276.451	18909.03
276.52	18965.32
276.588	19045.07
276.657	19096.3
276.725	19104.73
276.794	19157.64
276.863	19233.98
276.931	19197.11
277	19264
277.068	19335.66
277.137	19442.55
277.205	19474.16
277.274	19578.68
277.342	19648.61
277.411	19632.37
277.48	19636.03
277.548	19632.51
277.617	19673.57
277.685	19706.68
277.754	19762.1
277.822	19774.67
277.89	19863.83
277.959	19882.72
278.027	19868.75
278.096	19883.59
278.164	20017.24
278.233	20033.04
278.301	20040.95
278.37	20111.3
278.438	20107.02
278.507	20152.84
278.575	20109.33
278.643	20135.5
278.712	20111.98
278.78	20106
278.849	20183.88
278.917	20255.88
278.985	20293.66
279.054	20338.19
279.122	20416.27
279.191	20453.71
279.259	20486.1
279.327	20455.11
279.396	20549.28
279.464	20575.2
279.532	20637.71
279.601	20663.75
279.669	20687.41
279.737	20784.62
279.806	20831.03
279.874	20903.18
279.942	20948.24
280.011	20984.29
280.079	21056.25
280.147	21158.18
280.215	21219.78
280.284	21253.9
280.352	21250
280.42	21324.56
280.488	21333.72
280.557	21354.3
280.625	21409.05
280.693	21458.02
280.761	21516.19
280.83	21511.04
280.898	21603.24
280.966	21584.88
281.034	21524.62
281.102	21531.75
281.171	21549.97
281.239	21624.6
281.307	21646.77
281.375	21656.51
281.443	21790.04
281.512	21820.89
281.58	21886.7
281.648	21882.6
281.716	21920.34
281.784	21961.6
281.852	21983.73
281.92	22026.15
281.989	22099.72
282.057	22093.4
282.125	22293.87
282.193	22326.65
282.261	22375.68
282.329	22397.95
282.397	22462.16
282.465	22523.42
282.533	22619.4
282.601	22633.71
282.67	22599.77
282.738	22613.37
282.806	22692.19
282.874	22682.78
282.942	22731.43
283.01	22742.67
283.078	22809.44
283.146	22840.2
283.214	22921.25
283.282	22967.34
283.35	23058.19
283.418	23088.24
283.486	23145.51
283.554	23041.7
283.622	23085.86
283.69	23129.21
283.758	23155.39
283.826	23207.56
283.894	23277.44
283.962	23387.45
284.03	23475.26
284.098	23529.7
284.165	23569.24
284.233	23608.97
284.301	23630.72
284.369	23646.83
284.437	23666.99
284.505	23689.9
284.573	23795.17
284.641	23801.01
284.709	23876.02
284.777	23851.95
284.845	23914.85
284.912	23973.4
284.98	24025.25
285.048	24055.97
285.116	24110.38
285.184	24207.05
285.252	24256.39
285.319	24251.28
285.387	24258.42
285.455	24256.88
285.523	24317.94
285.591	24360.53
285.659	24408.19
285.726	24507.91
285.794	24515.63
285.862	24555.67
285.93	24607.04
285.997	24623.64
286.065	24662.85
286.133	24672.22
286.201	24725.18
286.269	24730.44
286.336	24758.86
286.404	24790.75
286.472	24868.14
286.539	24846.2
286.607	24830.71
286.675	24878.33
286.743	24954.42
286.81	24976.18
286.878	25065.94
286.946	25083.07
287.013	25125.42
287.081	25167.41
287.149	25150.32
287.216	25263.63
287.284	25287.42
287.352	25331.81
287.419	25366.27
287.487	25455.28
287.555	25512.33
287.622	25551.76
287.69	25604.85
287.758	25680.49
287.825	25710.94
287.893	25713.64
287.96	25777.04
288.028	25858.47
288.096	25915.82
288.163	25976.37
288.231	26002.19
288.298	26030.68
288.366	26126.56
288.433	26163.33
288.501	26180.67
288.569	26244.68
288.636	26257.57
288.704	26355.68
288.771	26429.46
288.839	26451.9
288.906	26471.32
288.974	26542.95
289.041	26570.61
289.109	26581.33
289.176	26651.47
289.244	26717.18
289.311	26793.92
289.379	26886.53
289.446	26943.67
289.514	26982.99
289.581	27012.16
289.649	27054.9
289.716	27113.25
289.783	27132.38
289.851	27241.48
289.918	27288.23
289.986	27374.08
290.053	27440.02
290.121	27484.43
290.188	27525.35
290.255	27670.93
290.323	27700.98
290.39	27729.59
290.458	27806.15
290.525	27909.39
290.592	27933.27
290.66	27988.25
290.727	28020.87
290.794	28096.51
290.862	28135.7
290.929	28185
290.996	28230.81
291.064	28310.06
291.131	28388.13
291.198	28467.84
291.266	28507.96
291.333	28564.06
291.4	28609.46
291.468	28701.96
291.535	28722.26
291.602	28781.77
291.669	28794.63
291.737	28860.8
291.804	28904.95
291.871	29005.71
291.938	29064.13
292.006	29203.27
292.073	29278.79
292.14	29366.07
292.207	29404.33
292.275	29448.19
292.342	29519.23
292.409	29656.28
292.476	29783.43
292.543	29806.26
292.611	29851.25
292.678	29951.54
292.745	30075.71
292.812	30156.66
292.879	30185.89
292.946	30248.13
293.014	30343.02
293.081	30423.73
293.148	30508.68
293.215	30604.55
293.282	30620.61
293.349	30704.98
293.416	30684.5
293.484	30773.07
293.551	30853.33
293.618	30938.41
293.685	31075.41
293.752	31100.18
293.819	31131.76
293.886	31129.34
293.953	31200.05
294.02	31290.97
294.087	31354.89
294.154	31387.57
294.221	31485.03
294.288	31542.4
294.356	31649.44
294.423	31712.45
294.49	31726.88
294.557	31807.85
294.624	31819.28
294.691	31936.32
294.758	31980.83
294.825	32054.69
294.892	32062.14
294.959	32104.48
295.026	32172.35
295.093	32197.2
295.16	32266.64
295.226	32317.99
295.293	32440.33
295.36	32495.5
295.427	32567.85
295.494	32651.41
295.561	32723.01
295.628	32821.15
295.695	32919.13
295.762	32976.6
295.829	33045.38
295.896	33153.57
295.963	33231.75
296.03	33322.7
296.096	33392.89
296.163	33485.48
296.23	33576.99
296.297	33688.07
296.364	33740.36
296.431	33807.16
296.498	33852.1
296.564	33976.81
296.631	34040.95
296.698	34048.9
296.765	34178.5
296.832	34217.19
296.899	34229.51
296.965	34343.61
297.032	34330.85
297.099	34443.97
297.166	34519.19
297.233	34569.82
297.299	34595.08
297.366	34651.05
297.433	34713.7
297.5	34788.99
297.566	34834.92
297.633	34881.88
297.7	34942.46
297.767	34996.62
297.833	35075.8
297.9	35130.84
297.967	35128.85
298.033	35216.86
298.1	35376.3
298.167	35384.45
298.234	35440.04
298.3	35517.52
298.367	35539.89
298.434	35622.04
298.5	35626.06
298.567	35665.9
298.634	35710.58
298.7	35819.8
298.767	35874.15
298.834	35962.32
298.9	35999.35
298.967	36020.45
299.033	36111.85
299.1	36210.76
299.167	36295.72
299.233	36325.38
299.3	36410.01
299.366	36518.27
299.433	36604.44
299.5	36562.35
299.566	36628.35
299.633	36729.66
299.699	36819.12
299.766	36864.36
299.832	36932.33
299.899	37014.19
299.965	37090.15
300.032	37137.62
300.099	37214.63
300.165	37281.34
300.232	37319.88
300.298	37364.06
300.365	37459.94
300.431	37513.11
300.498	37527.92
300.564	37603.62
300.631	37690.82
300.697	37793.48
300.763	37834.41
300.83	37881.77
300.896	37974.94
300.963	38057.06
301.029	38121.36
301.096	38181.15
301.162	38281.09
301.229	38312.47
301.295	38325.39
301.361	38388.62
301.428	38449.7
301.494	38439.5
301.561	38502.35
301.627	38561.8
301.693	38620.32
301.76	38689.83
301.826	38722.37
301.892	38818.26
301.959	38897.2
302.025	38940.33
302.092	38971.91
302.158	39050.21
302.224	39111.86
302.291	39136.15
302.357	39177.1
302.423	39208.63
302.49	39227.97
302.556	39305.13
302.622	39348.75
302.688	39437.31
302.755	39529.58
302.821	39594.04
302.887	39692.99
302.954	39743.72
303.02	39813.15
303.086	39885
303.152	39916.68
303.219	39936.46
303.285	39991.13
303.351	40057.61
303.417	40097.26
303.483	40103.72
303.55	40131.36
303.616	40161.11
303.682	40211.25
303.748	40238.55
303.815	40329.39
303.881	40422.64
303.947	40422.16
304.013	40484.07
304.079	40515.95
304.145	40490.68
304.212	40543.35
304.278	40545.2
304.344	40583.49
304.41	40595.06
304.476	40609.88
304.542	40646.62
304.608	40726.37
304.674	40709.65
304.741	40729.92
304.807	40789.84
304.873	40859.63
304.939	40949.94
305.005	40949.35
305.071	40982.16
305.137	41032.65
305.203	40988.27
305.269	41003.24
305.335	41070.57
305.401	41104.88
305.467	41120.34
305.533	41205.59
305.599	41265.29
305.666	41344.66
305.732	41378.34
305.798	41464.48
305.864	41600.9
305.93	41657.43
305.996	41702.25
306.062	41763.35
306.128	41792.18
306.194	41792.18
306.259	41831.56
306.325	41847.6
306.391	41920.43
306.457	41988.63
306.523	42044.05
306.589	42183.05
306.655	42204.15
306.721	42191.17
306.787	42186.5
306.853	42288.66
306.919	42286.91
306.985	42317.44
307.051	42338.98
307.117	42359.2
307.183	42377.24
307.248	42316.12
307.314	42376.07
307.38	42416.82
307.446	42462.33
307.512	42479.16
307.578	42532.64
307.644	42560.45
307.709	42606.16
307.775	42644.28
307.841	42673.9
307.907	42713.28
307.973	42676.61
308.039	42716.68
308.104	42786.07
308.17	42843.63
308.236	42835.17
308.302	42873.92
308.368	42869.69
308.433	42906.94
308.499	42922.74
308.565	42924.35
308.631	42968.84
308.696	42924.69
308.762	42919.04
308.828	42963.5
308.894	42951.05
308.959	42938.65
309.025	42965.64
309.091	42988.02
309.156	42997.74
309.222	43038.79
309.288	43031.25
309.354	42997.85
309.419	43028.78
309.485	43010.79
309.551	43058.6
309.616	43046.39
309.682	43078.3
309.748	43091.28
309.813	43099.74
309.879	43123.28
309.945	43135.77
310.01	43154.11
310.076	43201.91
310.141	43223.7
310.207	43203.71
310.273	43246.84
310.338	43292.8
310.404	43271.5
310.469	43255.3
310.535	43253.16
310.601	43218.09
310.666	43276.51
310.732	43357
310.797	43367.17
310.863	43379.03
310.928	43381.32
310.994	43432.15
311.059	43454.23
311.125	43482.73
311.191	43559.79
311.256	43551.91
311.322	43604.2
311.387	43588.59
311.453	44496.34
311.518	44529.57
311.584	44560.94
311.649	44611.09
311.715	44615.66
311.78	44653.11
311.846	44667.9
311.911	44726.96
311.976	44771.17
312.042	44750.5
312.107	44730.99
312.173	44722.28
312.238	44743.25
312.304	44772.83
312.369	44776.38
312.434	44774.87
312.5	44791.12
312.565	44719.55
312.631	44766.05
312.696	44771.55
312.761	44810.95
312.827	43937.1
312.892	44028.35
312.958	44065.04
313.023	44093.02
313.088	44126.34
313.154	44111.36
313.219	44122.79
313.284	44115.69
313.35	44134.42
313.415	44147.94
313.48	44169.63
313.546	44217.8
313.611	44286.79
313.676	44292.1
313.741	44294.38
313.807	44350.34
313.872	44391.74
313.937	44457.66
314.003	44536.88
314.068	44568.32
314.133	44621.21
314.198	44637.07
314.264	44597.59
314.329	44588.1
314.394	44595.06
314.459	44624.21
314.525	44730.37
314.59	44750.66
314.655	44740.88
314.72	44788.18
314.785	44824.53
314.851	44851.29
314.916	44817.81
314.981	44779.81
315.046	44769.49
315.111	44779.42
315.176	44764.48
315.242	44802.34
315.307	44820.98
315.372	44791.87
315.437	44800.78
315.502	44805.74
315.567	44863.76
315.632	44840.64
315.698	44873.78
315.763	44882.06
315.828	44869.55
315.893	44873.06
315.958	44884.93
316.023	44899.09
316.088	44862.98
316.153	44814.13
316.218	44798.17
316.283	44766.7
316.348	44744.22
316.413	44761.35
316.479	44711.93
316.544	44614.25
316.609	44519.12
316.674	44398.29
316.739	44278.38
316.804	44159.88
316.869	44022.9
316.934	43886.62
316.999	43774.11
317.064	43595.6
317.129	43439.9
317.194	43301.49
317.259	43106.92
317.324	42915.29
317.389	42723.02
317.454	42571.39
317.518	42425.96
317.583	42306.91
317.648	42199.22
317.713	42033.92
317.778	41794.8
317.843	41660.42
317.908	41493.47
317.973	41318.66
318.038	41184.27
318.103	41010.72
318.168	40866.08
318.233	40727.46
318.297	40512.85
318.362	40335.57
318.427	40149.59
318.492	40007.11
318.557	39799.76
318.622	39661.52
318.687	39537.49
318.751	39351.42
318.816	39168.65
318.881	38986.79
318.946	38740.12
319.011	38507.27
319.075	38301.36
319.14	38123.53
319.205	37912.86
319.27	37734.1
319.335	37510.18
319.399	37291.45
319.464	37124.17
319.529	36869.61
319.594	36660.08
319.658	36495.83
319.723	36274.43
319.788	36100.23
319.853	35830.36
319.917	35638.99
319.982	35372.22
320.047	35141.48
320.112	34978.16
320.176	34726.14
320.241	34524.23
320.306	34334.22
320.37	34111.5
320.435	33925.56
320.5	33748.34
320.564	33516.73
320.629	33289.35
320.694	33099.04
320.758	32886.99
320.823	32644.2
320.888	32454.94
320.952	32202.26
321.017	31953.57
321.082	31734.01
321.146	31528.24
321.211	31333.56
321.275	31108.68
321.34	30867.78
321.405	30626.39
321.469	30366.03
321.534	30131.32
321.598	29877.28
321.663	29670.56
321.727	29477.09
321.792	29213.96
321.857	28954.18
321.921	28733.18
321.986	28492.11
322.05	28199.5
322.115	27960.06
322.179	27725.68
322.244	27443.08
322.308	27219.5
322.373	26956.09
322.437	26719
322.502	26525.64
322.566	26272.6
322.631	26051.28
322.695	25820.91
322.76	25576.65
322.824	25352.47
322.889	25107.07
322.953	24849.47
323.018	24529.27
323.082	24211.4
323.146	23938.36
323.211	23659.66
323.275	23396.36
323.34	23141.99
323.404	22925.22
323.468	22668.97
323.533	22405.34
323.597	22144.69
323.662	21868.88
323.726	21653.78
323.79	21385.13
323.855	21048.65
323.919	20771.88
323.983	20506.54
324.048	20117.68
324.112	20286.11
324.177	19482.8
324.241	18425.13
324.305	17380.44
324.37	16358.42
324.434	15363.62
324.498	15089.26
324.562	14780.69
324.627	14435.64
324.691	14087.44
324.755	13694.39
324.82	13252.04
324.884	12792.32
324.948	12324.31
325.012	11746.34
325.077	11031.26
