Data from 20250701_urea_2M_exp3_MAYP1162681_23-29-50-638.txt Node
Date: Tue Jul 01 23:29:50 BST 2025
User: adleo
Spectrometer: MAYP116268
Trigger mode: 0
Integration Time (sec): 4.000000E0
Scans to average: 1
Electric dark correction enabled: true
Nonlinearity correction enabled: true
Boxcar width: 10
XAxis mode: Wavelengths
Number of Pixels in Spectrum: 2068
>>>>>Begin Spectral Data<<<<<
179.565	3764.59
179.642	3959.9
179.718	4114.48
179.795	4242.22
179.871	4355.81
179.948	4417.2
180.024	4483.74
180.101	4563.42
180.177	4617.96
180.254	4700.09
180.33	4782.9
180.407	5055.57
180.483	5346.49
180.56	5642.64
180.636	5913.63
180.712	5873.16
180.789	5906.99
180.865	5947.79
180.942	5986.16
181.018	6020.03
181.095	6065.69
181.171	6083.59
181.248	6086.99
181.324	6141.54
181.4	6167.36
181.477	6206.43
181.553	6254.97
181.63	6331.34
181.706	6389.63
181.782	6412.36
181.859	6409.43
181.935	6421.44
182.011	6408.62
182.088	6464.89
182.164	6534.8
182.24	6580.24
182.317	6607.21
182.393	6606.25
182.469	6654.84
182.546	6694.46
182.622	6707.71
182.698	6692.68
182.775	6740.37
182.851	6786.71
182.927	6760.15
183.003	6747.81
183.08	6724.05
183.156	6753.73
183.232	6742.77
183.308	6701.13
183.385	6733.92
183.461	6791.75
183.537	6796.27
183.613	6839.93
183.69	6812.55
183.766	6773.28
183.842	6801.96
183.918	6821.6
183.995	6860.65
184.071	6875.07
184.147	6856.81
184.223	6821.63
184.299	6859.01
184.375	6818.43
184.452	6842.12
184.528	6970.48
184.604	7013.36
184.68	7058.85
184.756	7086.82
184.832	7104.31
184.908	7120.1
184.985	7115.25
185.061	7061.21
185.137	7091.53
185.213	7051.04
185.289	7059.64
185.365	7035.77
185.441	7026.11
185.517	7073.51
185.593	7062.84
185.669	7052.56
185.745	7091.38
185.822	7146.21
185.898	7118.82
185.974	7148.65
186.05	7124.42
186.126	7048.3
186.202	7023.89
186.278	7010.25
186.354	6973.01
186.43	6991.71
186.506	6988.34
186.582	6989.4
186.658	7010.62
186.734	6939.12
186.81	6946.08
186.886	6950.35
186.962	6997.14
187.038	6986.86
187.114	6958.78
187.19	6988.96
187.266	6957.5
187.341	6955.82
187.417	6930.36
187.493	6933.92
187.569	6947.03
187.645	6925.95
187.721	6887.74
187.797	6912.76
187.873	6928.57
187.949	6909.56
188.025	6888.17
188.101	6897.82
188.176	6911.84
188.252	6901.09
188.328	6936.03
188.404	6935.98
188.48	6915
188.556	6890.73
188.632	6888.76
188.707	6895.06
188.783	6876.31
188.859	6858.6
188.935	6822.13
189.011	6852.97
189.086	6830.69
189.162	6801.19
189.238	6791.78
189.314	6779.05
189.39	6763.24
189.465	6736.77
189.541	6792.88
189.617	6744.43
189.693	6722.77
189.768	6739.88
189.844	6825.05
189.92	6791.74
189.996	6826.14
190.071	6871.77
190.147	6861.83
190.223	6893.59
190.298	6862.5
190.374	6825.47
190.45	6862.92
190.526	6889.68
190.601	6866.9
190.677	6869.21
190.753	6963.45
190.828	6975.84
190.904	7027.59
190.98	7076.56
191.055	7114.19
191.131	7087.37
191.207	7154.62
191.282	7193.67
191.358	7156.15
191.433	7100.61
191.509	7149.24
191.585	7136.22
191.66	7136.65
191.736	7162.93
191.811	7134.2
191.887	7189.96
191.963	7269.11
192.038	7287.08
192.114	7293.57
192.189	7307.54
192.265	7301.21
192.34	7224.89
192.416	7223.16
192.491	7212.87
192.567	7214.79
192.642	7222.63
192.718	7223.59
192.793	7182.36
192.869	7164.2
192.944	7172.8
193.02	7199.28
193.095	7210.72
193.171	7228.11
193.246	7225.33
193.322	7215.86
193.397	7219.94
193.473	7170.43
193.548	7103.66
193.624	7124.43
193.699	7117.27
193.775	7169.96
193.85	7178.84
193.925	7211
194.001	7203.94
194.076	7180.44
194.152	7148.18
194.227	7118.14
194.302	7085.54
194.378	7100.57
194.453	7092.17
194.529	7138.06
194.604	7090.2
194.679	7068.34
194.755	7007.16
194.83	7049.18
194.905	7042.07
194.981	7072.59
195.056	7052.47
195.131	7077.64
195.207	7074.13
195.282	7041.51
195.357	6978.34
195.433	7021.78
195.508	6978.57
195.583	7009.17
195.659	7052.24
195.734	7073.15
195.809	7070.56
195.884	7100.04
195.96	7104.85
196.035	7161.74
196.11	7143.72
196.185	7183.55
196.261	7195.51
196.336	7305.37
196.411	7253.92
196.486	7274
196.561	7248.39
196.637	7279.85
196.712	7338.57
196.787	7353.48
196.862	7406.81
196.937	7439.25
197.013	7457.86
197.088	7492.17
197.163	7564.94
197.238	7624.95
197.313	7628.07
197.388	7678.02
197.464	7781.63
197.539	7818.41
197.614	7792.98
197.689	7835.34
197.764	7893.55
197.839	7963.76
197.914	7938.07
197.989	8013.43
198.065	8060.03
198.14	8230.93
198.215	8319.44
198.29	8354.05
198.365	8386.82
198.44	8427.13
198.515	8524.81
198.59	8579.81
198.665	8671.43
198.74	8700.56
198.815	8706.77
198.89	8780.53
198.965	8880
199.04	8864.49
199.115	8916.51
199.19	9056.07
199.265	9067.77
199.34	9103.63
199.415	9216.81
199.49	9292.41
199.565	9326.45
199.64	9410.66
199.715	9401.31
199.79	9418.98
199.865	9441.18
199.94	9442.53
200.015	9546.07
200.09	9562.68
200.165	9582.57
200.24	9601.54
200.315	9736.03
200.39	9779.47
200.464	9800.37
200.539	9807.64
200.614	9856.37
200.689	9931.89
200.764	9955.16
200.839	10014.53
200.914	10020.83
200.989	9983.45
201.063	10034.65
201.138	9972.95
201.213	9969.09
201.288	9901.52
201.363	9920.64
201.438	9916.5
201.512	9967.73
201.587	9908.81
201.662	9918.4
201.737	9964.79
201.812	9994.36
201.886	9876.11
201.961	9909.02
202.036	9869.64
202.111	9855.67
202.186	9763.1
202.26	9704.24
202.335	9631.41
202.41	9611.76
202.485	9560.2
202.559	9493.03
202.634	9399.7
202.709	9436.71
202.784	9375.65
202.858	9373.97
202.933	9311.57
203.008	9281.57
203.082	9211.72
203.157	9202.77
203.232	9061.53
203.306	8979.9
203.381	8868.29
203.456	8789.06
203.53	8711.08
203.605	8641.52
203.68	8562.9
203.754	8543.52
203.829	8494.95
203.904	8427.2
203.978	8381.04
204.053	8392.4
204.127	8350.83
204.202	8344.87
204.277	8279.73
204.351	8254.66
204.426	8229.78
204.5	8206.63
204.575	8099.36
204.65	8137.95
204.724	8113.83
204.799	8140.9
204.873	8129.64
204.948	8125.88
205.022	8085.54
205.097	8051.99
205.171	8104.13
205.246	8133.1
205.32	8126.56
205.395	8121.7
205.469	8089.74
205.544	8113.51
205.618	8051.51
205.693	8092.16
205.767	8047.91
205.842	8123.01
205.916	8101.61
205.991	8067.65
206.065	8087.62
206.14	8137.93
206.214	8113.72
206.289	8088.5
206.363	8126.99
206.438	8137.77
206.512	8165.14
206.586	8233.34
206.661	8269.68
206.735	8189.54
206.81	8191.9
206.884	8241.96
206.958	8202.96
207.033	8268.54
207.107	8293.67
207.181	8405.37
207.256	8383.53
207.33	8446.74
207.405	8488.15
207.479	8554.94
207.553	8579.37
207.628	8515.7
207.702	8557.26
207.776	8540.66
207.851	8552.4
207.925	8601.27
207.999	8584.18
208.073	8573.74
208.148	8581.63
208.222	8541.97
208.296	8650.32
208.371	8702.72
208.445	8738.72
208.519	8832.6
208.593	8865.66
208.668	8849.2
208.742	8856.95
208.816	8867.49
208.89	8914.63
208.965	8908.18
209.039	8931.96
209.113	8998.01
209.187	9069.67
209.261	9052.39
209.336	9119.98
209.41	9187.33
209.484	9190.42
209.558	9272.51
209.632	9318.53
209.707	9357.77
209.781	9424.35
209.855	9480.99
209.929	9541.08
210.003	9564.05
210.077	9564.86
210.151	9728.4
210.226	9845.02
210.3	9935.13
210.374	10007.21
210.448	10018.91
210.522	10055.96
210.596	10093.77
210.67	10122.72
210.744	10276.92
210.818	10393.21
210.892	10466.15
210.966	10447.8
211.041	10498.05
211.115	10486.05
211.189	10566.75
211.263	10620.27
211.337	10644.74
211.411	10695.87
211.485	10670.56
211.559	10710.45
211.633	10715.12
211.707	10605.72
211.781	10628.23
211.855	10502.77
211.929	10471.95
212.003	10403.96
212.077	10429.21
212.151	10467.95
212.225	10488.43
212.299	10458.98
212.373	10412.88
212.447	10391.24
212.52	10488.37
212.594	10498.11
212.668	10528.02
212.742	10476.32
212.816	10457.34
212.89	10437.11
212.964	10423.28
213.038	10428.43
213.112	10461.83
213.186	10505.81
213.26	10430.49
213.333	10265.32
213.407	10285.93
213.481	10286.51
213.555	10324.78
213.629	10281.61
213.703	10211.7
213.777	10207.79
213.85	10128.63
213.924	10234.02
213.998	10226.5
214.072	10183.9
214.146	10130.37
214.219	10114.33
214.293	10088.61
214.367	10076.86
214.441	10088.56
214.515	10036.09
214.588	9943.37
214.662	9811.36
214.736	9727.66
214.81	9742.2
214.883	9768.57
214.957	9718.02
215.031	9664.93
215.105	9569.47
215.178	9504.65
215.252	9469.26
215.326	9362.69
215.4	9274.81
215.473	9092.08
215.547	9004.14
215.621	8938.82
215.694	8932.94
215.768	8832.18
215.842	8761.77
215.915	8694.36
215.989	8586.57
216.063	8527.1
216.136	8509.1
216.21	8490.34
216.284	8498.47
216.357	8464.5
216.431	8414.79
216.504	8404.73
216.578	8461.82
216.652	8472.01
216.725	8445.4
216.799	8447.61
216.873	8429.67
216.946	8436.45
217.02	8390.96
217.093	8355.36
217.167	8256.88
217.24	8173.09
217.314	8135.2
217.387	8090.68
217.461	8040.61
217.535	8060.14
217.608	7995.64
217.682	7966.48
217.755	7974.75
217.829	7917.79
217.902	7904.37
217.976	7886.19
218.049	7838.15
218.123	7762.59
218.196	7769.56
218.27	7734.26
218.343	7667.77
218.417	7661.37
218.49	7643.15
218.563	7690.26
218.637	7703.25
218.71	7775.21
218.784	7798.87
218.857	7834.93
218.931	7854.78
219.004	7867.86
219.077	7891.92
219.151	7913.37
219.224	7899.85
219.298	7895.33
219.371	7945.89
219.444	7911.71
219.518	7921.86
219.591	7946.09
219.665	8046.73
219.738	8054
219.811	8034.87
219.885	8075.22
219.958	8113.62
220.031	8108.62
220.105	8133.88
220.178	8135.85
220.251	8110.97
220.325	8133.83
220.398	8150.38
220.471	8172.88
220.544	8208.82
220.618	8182.11
220.691	8208.52
220.764	8231.18
220.838	8258.31
220.911	8240.17
220.984	8320.55
221.057	8356.72
221.131	8376.3
221.204	8282.15
221.277	8350.39
221.35	8478.43
221.424	8474.92
221.497	8483.49
221.57	8515.23
221.643	8545.75
221.716	8597.73
221.79	8599.75
221.863	8614.15
221.936	8623.14
222.009	8637.19
222.082	8665.59
222.155	8676.8
222.229	8745.41
222.302	8775.14
222.375	8783.52
222.448	8823.18
222.521	8831.8
222.594	8829.49
222.667	8799.71
222.74	8857.75
222.814	8855.87
222.887	8839.5
222.96	8892.31
223.033	8935.64
223.106	8959.79
223.179	8987.05
223.252	8996.11
223.325	9031.24
223.398	9042.02
223.471	9070.33
223.544	9099.97
223.617	9107.43
223.69	9129.28
223.763	9089.56
223.837	9111.13
223.91	9140.64
223.983	9090.11
224.056	9051.17
224.129	9080.34
224.202	9137.35
224.275	9123.1
224.348	9094.6
224.42	9058.49
224.493	8999.48
224.566	8971.93
224.639	8994.27
224.712	8965.23
224.785	8953.96
224.858	8940.63
224.931	8928.54
225.004	8893.93
225.077	8884.31
225.15	8799.66
225.223	8796.1
225.296	8880.1
225.369	8823.84
225.442	8784.6
225.514	8804.09
225.587	8826.47
225.66	8831.23
225.733	8834.6
225.806	8848.08
225.879	8838.02
225.952	8806.89
226.025	8854.44
226.097	8901.59
226.17	8890.76
226.243	8825.65
226.316	8817.95
226.389	8829.36
226.461	8848.67
226.534	8865.03
226.607	8856.85
226.68	8944.38
226.753	8940.48
226.825	8850.47
226.898	8904.95
226.971	8913.18
227.044	8933.92
227.117	8941
227.189	8954.77
227.262	8984.04
227.335	9000.61
227.407	8997
227.48	9030.63
227.553	9050.81
227.626	9038.82
227.698	9040.45
227.771	9086.11
227.844	9068.88
227.916	9079.71
227.989	9036.58
228.062	9032.34
228.134	9124.56
228.207	9120.08
228.28	9113.82
228.352	9125.42
228.425	9134.28
228.498	9178.24
228.57	9155.57
228.643	9214.18
228.716	9211.24
228.788	9198.91
228.861	9187.12
228.934	9245.85
229.006	9250.86
229.079	9246.09
229.151	9232.41
229.224	9203.44
229.296	9221.97
229.369	9320.85
229.442	9373.21
229.514	9358.72
229.587	9401.04
229.659	9322.88
229.732	9331.16
229.804	9371.27
229.877	9452.96
229.949	9491.2
230.022	9539.43
230.094	9541.21
230.167	9531.53
230.239	9489.5
230.312	9482.47
230.384	9557.04
230.457	9558.43
230.529	9571.53
230.602	9572.83
230.674	9578.17
230.747	9620.38
230.819	9652.6
230.892	9532.79
230.964	9533.36
231.037	9564.69
231.109	9560.5
231.181	9602.49
231.254	9573.41
231.326	9560.5
231.399	9530.63
231.471	9498.36
231.544	9422.11
231.616	9474.73
231.688	9477.09
231.761	9469.15
231.833	9460.34
231.905	9373.88
231.978	9370.8
232.05	9354.04
232.122	9355.25
232.195	9331.12
232.267	9369.31
232.339	9347.93
232.412	9412.68
232.484	9385.36
232.556	9360.19
232.629	9427.83
232.701	9446.08
232.773	9455.09
232.846	9446.18
232.918	9456.54
232.99	9471.42
233.062	9517.08
233.135	9528.15
233.207	9494.83
233.279	9541.66
233.351	9574.84
233.424	9578.5
233.496	9553.51
233.568	9637.6
233.64	9598.16
233.713	9614.82
233.785	9617.04
233.857	9633.66
233.929	9584.26
234.001	9654.36
234.074	9724.27
234.146	9649.74
234.218	9642.95
234.29	9650.03
234.362	9638.04
234.434	9597.77
234.507	9564.5
234.579	9513.06
234.651	9488.36
234.723	9519.33
234.795	9538.01
234.867	9530.26
234.939	9587.86
235.012	9604.71
235.084	9610.83
235.156	9647.95
235.228	9635.53
235.3	9611.16
235.372	9623.68
235.444	9689.89
235.516	9604.47
235.588	9607.27
235.66	9629.18
235.732	9607.84
235.804	9799.54
235.876	9846.29
235.948	9907.33
236.02	9924.47
236.092	9941.23
236.164	9953.41
236.236	9950.71
236.308	9953.94
236.38	9983.9
236.452	9964.39
236.524	9984.81
236.596	10048.43
236.668	10089.52
236.74	10109.55
236.812	10143.94
236.884	10174.68
236.956	10179.93
237.028	10174.88
237.1	10156.43
237.172	10224.07
237.244	10300.72
237.316	10181.09
237.388	10164.95
237.46	10132.87
237.532	10192.46
237.604	10180.51
237.675	10256.64
237.747	10305.92
237.819	10295.42
237.891	10301.3
237.963	10297.02
238.035	10298.75
238.107	10180.41
238.178	10245.32
238.25	10252.93
238.322	10341.46
238.394	10298.63
238.466	10305.13
238.538	10352.72
238.609	10391.79
238.681	10337.77
238.753	10313.2
238.825	10333.34
238.897	10363.64
238.968	10458.91
239.04	10438.77
239.112	10551.45
239.184	10515.07
239.255	10505.91
239.327	10540.11
239.399	10562.71
239.471	10610.74
239.542	10639.99
239.614	10716.49
239.686	10624.26
239.758	10681.31
239.829	10646.51
239.901	10717.63
239.973	10735.16
240.044	10767.35
240.116	10782.38
240.188	10797.51
240.259	10816.64
240.331	10813.89
240.403	10852.92
240.474	10801.59
240.546	10796.1
240.618	10733.21
240.689	10733.07
240.761	10756.83
240.833	10817.5
240.904	10814.8
240.976	10811.38
241.048	10831.71
241.119	10863.47
241.191	10919.99
241.262	10985.49
241.334	10993.49
241.405	10983.85
241.477	10981.59
241.549	10992.53
241.62	11021.49
241.692	11067.12
241.763	11126.94
241.835	11142.65
241.906	11158.6
241.978	11128
242.049	11199.03
242.121	11267.84
242.192	11338.06
242.264	11305.87
242.335	11265.39
242.407	11313.05
242.478	11319.27
242.55	11347.61
242.621	11334.59
242.693	11326.59
242.764	11317.77
242.836	11318.83
242.907	11355.94
242.979	11389.1
243.05	11407.7
243.122	11430.02
243.193	11435.51
243.264	11363.99
243.336	11368.71
243.407	11400.67
243.479	11480.71
243.55	11493.87
243.622	11507.42
243.693	11500.09
243.764	11570.89
243.836	11536.53
243.907	11522.65
243.978	11528.44
244.05	11547.76
244.121	11502.51
244.192	11551.62
244.264	11502.56
244.335	11506.41
244.407	11459.95
244.478	11477.21
244.549	11471.23
244.62	11421.45
244.692	11419.62
244.763	11462.17
244.834	11448.58
244.906	11430.84
244.977	11453.69
245.048	11506.23
245.119	11482.61
245.191	11465.02
245.262	11397.79
245.333	11483.04
245.405	11503.71
245.476	11538.27
245.547	11552.87
245.618	11605.6
245.689	11617.12
245.761	11653.6
245.832	11665.41
245.903	11712.35
245.974	11741.76
246.045	11762.96
246.117	11852.51
246.188	11833.57
246.259	11817.09
246.33	11837.53
246.401	11845.62
246.473	11807.26
246.544	11792.31
246.615	11852.52
246.686	11853.14
246.757	11937.29
246.828	11913.1
246.899	11985.11
246.97	11953.64
247.042	11947.42
247.113	11988.01
247.184	12079.17
247.255	12073.48
247.326	12099.51
247.397	12099.17
247.468	12112.43
247.539	12119.85
247.61	12078.06
247.681	12123.65
247.752	12176.14
247.823	12155.27
247.894	12172.29
247.965	12146.41
248.037	12135.95
248.108	12075.45
248.179	12085.86
248.25	12071.45
248.321	12099.21
248.392	12046.09
248.463	12125.76
248.534	12121.23
248.605	12157.34
248.675	12125.62
248.746	12141.62
248.817	12160.9
248.888	12189.44
248.959	12135.55
249.03	12159.22
249.101	12164.28
249.172	12151.22
249.243	12081.57
249.314	12145.49
249.385	12149.92
249.456	12181.64
249.527	12167.27
249.598	12200.58
249.669	12205.73
249.739	12220.72
249.81	12242.85
249.881	12206.41
249.952	12199.95
250.023	12198.17
250.094	12133.48
250.165	12100.17
250.235	12096.12
250.306	12099.68
250.377	12065.32
250.448	12082.04
250.519	12021.02
250.59	12083.06
250.66	12078.91
250.731	12153.96
250.802	12144.36
250.873	12168.66
250.944	12189.96
251.014	12187.99
251.085	12278.86
251.156	12300.45
251.227	12347.88
251.297	12400.52
251.368	12451.91
251.439	12492.59
251.51	12546.77
251.58	12533.91
251.651	12533.33
251.722	12594.5
251.792	12540.37
251.863	12546.83
251.934	12615.47
252.005	12730.96
252.075	12738.39
252.146	12787.99
252.217	12835.04
252.287	12888.45
252.358	12889.56
252.429	12966.4
252.499	12960.95
252.57	12968.66
252.641	13016.14
252.711	13020.82
252.782	12969.92
252.852	13050.85
252.923	13055.19
252.994	13068.74
253.064	13122.68
253.135	13103.97
253.205	13082.09
253.276	13160.71
253.347	13217.88
253.417	13196.09
253.488	13171.79
253.558	13156.32
253.629	13157.96
253.699	13169.96
253.77	13194.45
253.841	13193.92
253.911	13208.29
253.982	13225.74
254.052	13253.07
254.123	13264.88
254.193	13271.19
254.264	13410.89
254.334	13373.34
254.405	13339.11
254.475	13300.31
254.546	13307.83
254.616	13364.9
254.687	13397.3
254.757	13428.87
254.827	13433.69
254.898	13458.47
254.968	13465.51
255.039	13448.3
255.109	13487.35
255.18	13461.85
255.25	13388.77
255.321	13424.29
255.391	13373.15
255.461	13460.01
255.532	13376.71
255.602	13368.42
255.673	13318.96
255.743	13283.24
255.813	13211.95
255.884	13257.75
255.954	13303.35
256.024	13366.5
256.095	13369.58
256.165	13330.44
256.235	13343.99
256.306	13328.37
256.376	13372.48
256.446	13413.16
256.517	13448.5
256.587	13490.24
256.657	13508.37
256.728	13535.7
256.798	13541.92
256.868	13544.04
256.938	13508.08
257.009	13557.54
257.079	13584.34
257.149	13676.51
257.219	13612.45
257.29	13659.59
257.36	13605.6
257.43	13651.11
257.5	13582.89
257.571	13574.51
257.641	13610.66
257.711	13571.13
257.781	13602.32
257.852	13620.5
257.922	13557.83
257.992	13568.38
258.062	13563.23
258.132	13608.44
258.202	13609.99
258.273	13621.7
258.343	13695.41
258.413	13687.5
258.483	13688.03
258.553	13660.17
258.623	13636.5
258.693	13673.76
258.764	13739.71
258.834	13815.15
258.904	13822.09
258.974	13817.51
259.044	13831.11
259.114	13860.03
259.184	13898.55
259.254	13912.34
259.324	13862.93
259.394	13910.84
259.464	13978.62
259.535	13982.09
259.605	13971.87
259.675	13968.21
259.745	14000.02
259.815	13974.86
259.885	13977.99
259.955	14097.87
260.025	14091.99
260.095	14109.49
260.165	14134.12
260.235	14195.44
260.305	14174.03
260.375	14135.9
260.445	14226.43
260.515	14290.21
260.585	14333.3
260.655	14335.67
260.725	14379.29
260.795	14413.08
260.865	14485.73
260.934	14459.6
261.004	14487.32
261.074	14492.33
261.144	14549.46
261.214	14592.79
261.284	14588.98
261.354	14625.67
261.424	14580.17
261.494	14643.56
261.564	14640.76
261.634	14670.65
261.703	14601
261.773	14624.57
261.843	14668.53
261.913	14659.23
261.983	14602.83
262.053	14629.34
262.123	14627.27
262.192	14585.14
262.262	14624.13
262.332	14585.04
262.402	14626.69
262.472	14641.97
262.541	14586.92
262.611	14635.8
262.681	14604.51
262.751	14652.72
262.821	14656.38
262.89	14628.09
262.96	14659.56
263.03	14746.71
263.1	14763.82
263.169	14777.08
263.239	14813.57
263.309	14877.39
263.379	14907.57
263.448	14919.76
263.518	14945.4
263.588	14960.11
263.657	15027.79
263.727	15069.09
263.797	15074.78
263.867	15062.73
263.936	15016.55
264.006	15076.96
264.076	15077.53
264.145	15081
264.215	15060.13
264.285	15101.83
264.354	15054.2
264.424	15041.43
264.494	14986.14
264.563	14981.08
264.633	15058.16
264.702	15083.56
264.772	15023.31
264.842	15013.86
264.911	15050.45
264.981	14997.09
265.05	15009
265.12	15009.96
265.19	15015.89
265.259	15057.54
265.329	15092.53
265.398	15127.91
265.468	15229.13
265.537	15219.16
265.607	15259.02
265.676	15309.87
265.746	15336.67
265.815	15401.31
265.885	15412.83
265.955	15403.58
266.024	15404.54
266.094	15349.69
266.163	15403.38
266.232	15473.47
266.302	15491.01
266.371	15521.86
266.441	15551.51
266.51	15607.32
266.58	15608.53
266.649	15602.02
266.719	15659.04
266.788	15693.55
266.858	15767.39
266.927	15698.27
266.996	15725.51
267.066	15746.23
267.135	15717.55
267.205	15759.97
267.274	15776.31
267.343	15830.53
267.413	15850.68
267.482	15910.64
267.552	15971.76
267.621	15921.35
267.69	15880.04
267.76	15899.66
267.829	15927.37
267.898	15947.62
267.968	15922.89
268.037	15969.02
268.106	16019.33
268.176	15981.64
268.245	15985.4
268.314	15973.21
268.384	16027.72
268.453	16050.76
268.522	16078.14
268.592	16138.05
268.661	16124.75
268.73	16154.73
268.799	16145.43
268.869	16225.77
268.938	16186.01
269.007	16178.35
269.076	16208.86
269.146	16262.94
269.215	16293.83
269.284	16369.16
269.353	16366.99
269.422	16375.81
269.492	16358.89
269.561	16276.67
269.63	16316.14
269.699	16313.06
269.768	16333.15
269.838	16355.13
269.907	16397.54
269.976	16367.57
270.045	16314.31
270.114	16349.83
270.183	16355.46
270.253	16384.87
270.322	16337.39
270.391	16357.68
270.46	16423.18
270.529	16471.09
270.598	16513.98
270.667	16525.35
270.736	16498.56
270.806	16530.85
270.875	16595.29
270.944	16615
271.013	16743.35
271.082	16768.51
271.151	16810.58
271.22	16772.6
271.289	16788.26
271.358	16796.36
271.427	16840.46
271.496	16871.84
271.565	16866.1
271.634	16894.59
271.703	16940.47
271.772	17004.38
271.841	17018.93
271.91	16991.03
271.979	17013.87
272.048	16980.71
272.117	17029.82
272.186	17025.44
272.255	17079.56
272.324	17119.17
272.393	17158.07
272.462	17145.83
272.531	17169.54
272.6	17182.65
272.669	17256.58
272.738	17265.2
272.807	17293.11
272.876	17275.76
272.945	17414.17
273.013	17478.26
273.082	17545.11
273.151	17535.56
273.22	17568.24
273.289	17597.16
273.358	17681.68
273.427	17687.9
273.496	17747.27
273.564	17790.02
273.633	17850.21
273.702	17838.07
273.771	17854.4
273.84	17888.48
273.909	17932.96
273.977	17969.05
274.046	17976.81
274.115	18036.23
274.184	18033.58
274.253	18060.9
274.322	18134.64
274.39	18079.56
274.459	18077.92
274.528	18022.11
274.597	18044.23
274.665	18067.89
274.734	18131.41
274.803	18138.83
274.872	18159.65
274.94	18149.77
275.009	18284.95
275.078	18287.02
275.147	18325.91
275.215	18356.13
275.284	18421.76
275.353	18426.58
275.421	18390.44
275.49	18492.65
275.559	18510.53
275.627	18538.38
275.696	18551.64
275.765	18597.85
275.833	18619.34
275.902	18658.81
275.971	18744.01
276.039	18837.89
276.108	18905.45
276.177	18949.73
276.245	18959.04
276.314	18991.61
276.383	19063.32
276.451	18985.82
276.52	19034.4
276.588	19116.47
276.657	19172.17
276.725	19175.16
276.794	19222.92
276.863	19310.48
276.931	19281.66
277	19339.3
277.068	19419.44
277.137	19515
277.205	19554.71
277.274	19654.51
277.342	19730.17
277.411	19714.12
277.48	19710.32
277.548	19718.32
277.617	19756.92
277.685	19780.29
277.754	19840.53
277.822	19857.88
277.89	19937.64
277.959	19959.23
278.027	19940
278.096	19942.12
278.164	20081.45
278.233	20101.88
278.301	20110.56
278.37	20168.44
278.438	20171.62
278.507	20221.88
278.575	20181.45
278.643	20218.46
278.712	20198.12
278.78	20195.67
278.849	20273.49
278.917	20355.18
278.985	20373.74
279.054	20427.96
279.122	20517.06
279.191	20546.9
279.259	20570.56
279.327	20539.42
279.396	20629.5
279.464	20664.1
279.532	20724.73
279.601	20746.57
279.669	20778.47
279.737	20872.55
279.806	20922.19
279.874	20991.93
279.942	21024.18
280.011	21058.68
280.079	21111.94
280.147	21218.07
280.215	21274.17
280.284	21310.8
280.352	21293.16
280.42	21371.09
280.488	21389.17
280.557	21401.89
280.625	21464.8
280.693	21512.22
280.761	21572.13
280.83	21563.5
280.898	21644.81
280.966	21639.22
281.034	21576.32
281.102	21574.68
281.171	21586.44
281.239	21662.66
281.307	21677.07
281.375	21686.57
281.443	21816.57
281.512	21854.42
281.58	21911.6
281.648	21904.46
281.716	21941.53
281.784	21994.65
281.852	22006.36
281.92	22042.85
281.989	22130.84
282.057	22116.42
282.125	22304.39
282.193	22344.64
282.261	22396.32
282.329	22417.68
282.397	22472.48
282.465	22538.14
282.533	22633.44
282.601	22641.83
282.67	22601.9
282.738	22611.16
282.806	22688.15
282.874	22688.63
282.942	22738.29
283.01	22766.89
283.078	22831.25
283.146	22866.34
283.214	22948.22
283.282	23004.29
283.35	23081.11
283.418	23101.99
283.486	23161.72
283.554	23065.98
283.622	23102.87
283.69	23141.1
283.758	23176.3
283.826	23238.11
283.894	23308.91
283.962	23417.43
284.03	23519.42
284.098	23579.55
284.165	23620.96
284.233	23677.29
284.301	23706.22
284.369	23726.82
284.437	23736.85
284.505	23767.76
284.573	23865.04
284.641	23871.31
284.709	23950.32
284.777	23937.05
284.845	24003.97
284.912	24063.67
284.98	24129.27
285.048	24159.36
285.116	24219.56
285.184	24314.06
285.252	24367.17
285.319	24364.27
285.387	24377.3
285.455	24369.25
285.523	24429.5
285.591	24477.15
285.659	24521.24
285.726	24596.65
285.794	24597.56
285.862	24645.28
285.93	24687.43
285.997	24722.18
286.065	24754.3
286.133	24770.32
286.201	24819.82
286.269	24811.62
286.336	24830.96
286.404	24854.41
286.472	24935.43
286.539	24911.65
286.607	24897.31
286.675	24934.33
286.743	25011.19
286.81	25038.85
286.878	25126.67
286.946	25151.04
287.013	25197.79
287.081	25230.46
287.149	25227.66
287.216	25328.18
287.284	25359.69
287.352	25417.31
287.419	25433.57
287.487	25534.5
287.555	25591.42
287.622	25627.52
287.69	25695.14
287.758	25791.97
287.825	25826.91
287.893	25829.37
287.96	25889.2
288.028	25966
288.096	26021.32
288.163	26072.69
288.231	26078.39
288.298	26113.25
288.366	26196.73
288.433	26228.58
288.501	26257.89
288.569	26310.89
288.636	26337.49
288.704	26426.45
288.771	26492.88
288.839	26526.73
288.906	26533.2
288.974	26596.38
289.041	26638.91
289.109	26652.58
289.176	26719.2
289.244	26777.09
289.311	26863.2
289.379	26943.93
289.446	27002.76
289.514	27048.56
289.581	27079.71
289.649	27146.89
289.716	27209.3
289.783	27231.96
289.851	27342.85
289.918	27381.49
289.986	27464.87
290.053	27529.75
290.121	27568.79
290.188	27616.72
290.255	27754.34
290.323	27786.03
290.39	27816.58
290.458	27875.8
290.525	27966.88
290.592	27987.76
290.66	28045.35
290.727	28073.52
290.794	28173.37
290.862	28225.62
290.929	28279.56
290.996	28342.15
291.064	28413.29
291.131	28489.92
291.198	28581.87
291.266	28628.08
291.333	28691.96
291.4	28759.7
291.468	28866.63
291.535	28901.39
291.602	28959.74
291.669	28978.07
291.737	29044.82
291.804	29090.08
291.871	29203.27
291.938	29275.77
292.006	29413.13
292.073	29500.07
292.14	29584.65
292.207	29605.11
292.275	29652.55
292.342	29727.67
292.409	29852.89
292.476	29975.84
292.543	29993.21
292.611	30037.43
292.678	30132.5
292.745	30267.14
292.812	30330.97
292.879	30355.07
292.946	30406.92
293.014	30504.62
293.081	30573.97
293.148	30664.3
293.215	30764.43
293.282	30780.64
293.349	30853.73
293.416	30828.56
293.484	30918.11
293.551	31000.16
293.618	31098.6
293.685	31225.21
293.752	31247.57
293.819	31282.44
293.886	31275.28
293.953	31334.57
294.02	31411.02
294.087	31472.37
294.154	31481.72
294.221	31582.03
294.288	31634.57
294.356	31743.9
294.423	31810.21
294.49	31825.02
294.557	31916.61
294.624	31932.83
294.691	32046.15
294.758	32096.68
294.825	32183.71
294.892	32196.45
294.959	32240.29
295.026	32312.62
295.093	32325.71
295.16	32384.2
295.226	32415.98
295.293	32557.43
295.36	32631.68
295.427	32722.11
295.494	32802.86
295.561	32872.42
295.628	32992.78
295.695	33097.71
295.762	33144.52
295.829	33211.07
295.896	33314.37
295.963	33388.39
296.03	33471.84
296.096	33546.2
296.163	33635.89
296.23	33734.89
296.297	33836.62
296.364	33878.78
296.431	33942.59
296.498	33988.88
296.564	34122.52
296.631	34189.8
296.698	34186.11
296.765	34304.32
296.832	34325.22
296.899	34344.43
296.965	34460.9
297.032	34444.41
297.099	34536.48
297.166	34621.3
297.233	34669.6
297.299	34705.58
297.366	34757.29
297.433	34815.38
297.5	34882.86
297.566	34928.51
297.633	34967.03
297.7	35028.05
297.767	35081.39
297.833	35152.71
297.9	35213.09
297.967	35205.28
298.033	35307.25
298.1	35466.08
298.167	35486.94
298.234	35556.75
298.3	35640.49
298.367	35676.35
298.434	35757.98
298.5	35784.09
298.567	35826.64
298.634	35873.56
298.7	35982.83
298.767	36043.98
298.834	36141.47
298.9	36181.36
298.967	36214.31
299.033	36292.94
299.1	36392.84
299.167	36498.33
299.233	36534.3
299.3	36629.76
299.366	36737.34
299.433	36837.16
299.5	36798.27
299.566	36857.29
299.633	36957.78
299.699	37037.93
299.766	37072.93
299.832	37120.51
299.899	37197.23
299.965	37282.09
300.032	37319.32
300.099	37393.8
300.165	37452.7
300.232	37482.85
300.298	37549.07
300.365	37644.14
300.431	37692.16
300.498	37717.12
300.564	37778.21
300.631	37868.62
300.697	37961.91
300.763	38002.94
300.83	38034.22
300.896	38118.23
300.963	38202.63
301.029	38265.19
301.096	38326.78
301.162	38421.18
301.229	38469.41
301.295	38479.61
301.361	38536.24
301.428	38608.5
301.494	38609.81
301.561	38669.65
301.627	38735.55
301.693	38779.22
301.76	38837.17
301.826	38872.87
301.892	38962.11
301.959	39044.21
302.025	39080.5
302.092	39102.94
302.158	39184.16
302.224	39245.72
302.291	39267.82
302.357	39300.41
302.423	39312.56
302.49	39326.41
302.556	39413.14
302.622	39457.01
302.688	39548.59
302.755	39647.28
302.821	39718.3
302.887	39804.48
302.954	39849.38
303.02	39921.14
303.086	39988.14
303.152	40027.06
303.219	40069.24
303.285	40131.15
303.351	40189.67
303.417	40240.44
303.483	40261.58
303.55	40284.9
303.616	40322.13
303.682	40377.08
303.748	40395.88
303.815	40496.48
303.881	40581.77
303.947	40593.77
304.013	40643.97
304.079	40656.9
304.145	40633.47
304.212	40678.91
304.278	40694.9
304.344	40727.61
304.41	40726.1
304.476	40738.69
304.542	40767.07
304.608	40827.33
304.674	40809.98
304.741	40833.36
304.807	40887.8
304.873	40954.43
304.939	41050.18
305.005	41033.9
305.071	41069.13
305.137	41133.91
305.203	41106.74
305.269	41137.85
305.335	41211.75
305.401	41240.42
305.467	41270.85
305.533	41331.66
305.599	41390.43
305.666	41459.84
305.732	41512.43
305.798	41622.15
305.864	41748.41
305.93	41811.95
305.996	41844.23
306.062	41896.48
306.128	41926.58
306.194	41937.08
306.259	41980.1
306.325	41993.38
306.391	42077.48
306.457	42143.83
306.523	42200.37
306.589	42326.94
306.655	42360.2
306.721	42327.53
306.787	42330.2
306.853	42428.51
306.919	42414.95
306.985	42441.6
307.051	42456.23
307.117	42464.93
307.183	42468.14
307.248	42421.75
307.314	42472.76
307.38	42535.54
307.446	42590.63
307.512	42594.28
307.578	42638.72
307.644	42666.05
307.709	42710.44
307.775	42723.77
307.841	42754.06
307.907	42784.07
307.973	42747.83
308.039	42788.73
308.104	42859.77
308.17	42913.35
308.236	42900.66
308.302	42960.12
308.368	42951.91
308.433	43005.54
308.499	43030
308.565	43015.61
308.631	43068.86
308.696	43033.99
308.762	43037.98
308.828	43076.21
308.894	43070.23
308.959	43051.41
309.025	43062.84
309.091	43093.48
309.156	43114.15
309.222	43171.55
309.288	43177.43
309.354	43140.19
309.419	43155.31
309.485	43159.45
309.551	43225.99
309.616	43224.53
309.682	43265.14
309.748	43297.72
309.813	43312.85
309.879	43341.25
309.945	43371.3
310.01	43382.78
310.076	43433.6
310.141	43447.13
310.207	43421.54
310.273	43481.36
310.338	43532.52
310.404	43516.27
310.469	43513.55
310.535	43525.66
310.601	43477.5
310.666	43525.27
310.732	43609.36
310.797	43603.47
310.863	43600.36
310.928	43609.7
310.994	43651.14
311.059	43679.65
311.125	43701.88
311.191	43777.06
311.256	43777.49
311.322	43830.9
311.387	43809.75
311.453	44704.32
311.518	44740.22
311.584	44779.58
311.649	44825.55
311.715	44825.45
311.78	44872.48
311.846	44876.13
311.911	44930.62
311.976	44980.68
312.042	44975.32
312.107	44964.67
312.173	44985.73
312.238	45009.47
312.304	45029.23
312.369	45033.22
312.434	45015.99
312.5	45029.13
312.565	44953.42
312.631	45005.81
312.696	45012.43
312.761	45063.31
312.827	44205.03
312.892	44283.25
312.958	44312.79
313.023	44328.84
313.088	44372.97
313.154	44374.82
313.219	44384.79
313.284	44388.68
313.35	44406.54
313.415	44413.2
313.48	44433.83
313.546	44480.69
313.611	44533.24
313.676	44527.89
313.741	44532.66
313.807	44592.61
313.872	44639.95
313.937	44699.55
314.003	44757.86
314.068	44793.09
314.133	44840.44
314.198	44854.89
314.264	44812.54
314.329	44810.88
314.394	44842.18
314.459	44852.84
314.525	44936.97
314.59	44955.27
314.655	44952.06
314.72	44999.41
314.785	45033.33
314.851	45044.23
314.916	45006.41
314.981	44997.22
315.046	45000.19
315.111	45010.69
315.176	44996.63
315.242	45028.56
315.307	45052.21
315.372	45025
315.437	45016.44
315.502	45018.92
315.567	45075.43
315.632	45073.97
315.698	45104.49
315.763	45107.46
315.828	45121.52
315.893	45128
315.958	45151.21
316.023	45154.08
316.088	45122.74
316.153	45076.9
316.218	45074.61
316.283	45032.19
316.348	44991.18
316.413	44995.75
316.479	44966.81
316.544	44875.68
316.609	44773.94
316.674	44655.42
316.739	44536.19
316.804	44421.97
316.869	44291.98
316.934	44148.78
316.999	44018.95
317.064	43834.74
317.129	43677.99
317.194	43524.58
317.259	43330.68
317.324	43127.84
317.389	42938.87
317.454	42766.12
317.518	42606.3
317.583	42481.07
317.648	42378.42
317.713	42212.53
317.778	41985.79
317.843	41842.7
317.908	41663.15
317.973	41501.84
318.038	41362.91
318.103	41195.87
318.168	41059
318.233	40910.07
318.297	40698.18
318.362	40542.02
318.427	40364.04
318.492	40221.2
318.557	40010.59
318.622	39868.12
318.687	39731.66
318.751	39551.83
318.816	39382.86
318.881	39225.03
318.946	38983.5
319.011	38750.78
319.075	38549.61
319.14	38354.4
319.205	38133.22
319.27	37955.32
319.335	37724.29
319.399	37509.91
319.464	37340.23
319.529	37083.72
319.594	36872.04
319.658	36703.8
319.723	36469.99
319.788	36288.94
319.853	36015.59
319.917	35844.62
319.982	35583.12
320.047	35363.05
320.112	35192.52
320.176	34938.54
320.241	34721.96
320.306	34525.74
320.37	34313.12
320.435	34114.56
320.5	33932.45
320.564	33708.53
320.629	33484.28
320.694	33293.75
320.758	33067.43
320.823	32826.26
320.888	32638.63
320.952	32379.9
321.017	32129.21
321.082	31903.43
321.146	31693.47
321.211	31491.61
321.275	31245.1
321.34	31007.75
321.405	30773.53
321.469	30511.93
321.534	30283.53
321.598	30022.23
321.663	29825.55
321.727	29625.18
321.792	29374.31
321.857	29127.97
321.921	28902.59
321.986	28659.9
322.05	28366.91
322.115	28154.66
322.179	27915.6
322.244	27631.43
322.308	27420.41
322.373	27167.84
322.437	26918.58
322.502	26724.68
322.566	26467.04
322.631	26237.47
322.695	25995.5
322.76	25744.88
322.824	25525.11
322.889	25275.11
322.953	25028.41
323.018	24706.62
323.082	24388.68
323.146	24112.72
323.211	23826.77
323.275	23565.62
323.34	23310.04
323.404	23085.45
323.468	22813.98
323.533	22545.6
323.597	22284.57
323.662	21997.37
323.726	21778.83
323.79	21525.9
323.855	21193.08
323.919	20918.48
323.983	20663.74
324.048	20283.13
324.112	20423.61
324.177	19609.04
324.241	18541.97
324.305	17489.28
324.37	16454.24
324.434	15448.55
324.498	15168.12
324.562	14861.9
324.627	14508.89
324.691	14158.1
324.755	13765.62
324.82	13310.21
324.884	12846.64
324.948	12373.48
325.012	11801.56
325.077	11072.47
