Data from 20250701_urea_2M_exp3_MAYP1162681_10-09-51-526.txt Node
Date: Wed Jul 02 10:09:51 BST 2025
User: adleo
Spectrometer: MAYP116268
Trigger mode: 0
Integration Time (sec): 4.000000E0
Scans to average: 1
Electric dark correction enabled: true
Nonlinearity correction enabled: true
Boxcar width: 10
XAxis mode: Wavelengths
Number of Pixels in Spectrum: 2068
>>>>>Begin Spectral Data<<<<<
179.565	3845.53
179.642	4042.76
179.718	4197.56
179.795	4339.24
179.871	4457.13
179.948	4524.02
180.024	4599.33
180.101	4685.92
180.177	4744.57
180.254	4826.07
180.33	4905.86
180.407	5189.19
180.483	5489.14
180.56	5790.48
180.636	6064.11
180.712	6020.89
180.789	6058.22
180.865	6099.56
180.942	6131.65
181.018	6175.03
181.095	6219.79
181.171	6242.49
181.248	6245.47
181.324	6296.7
181.4	6315.86
181.477	6357.49
181.553	6404.46
181.63	6477.01
181.706	6533.78
181.782	6556.04
181.859	6554.12
181.935	6572.03
182.011	6553.74
182.088	6606.47
182.164	6678.74
182.24	6739.46
182.317	6769.13
182.393	6762.46
182.469	6813.36
182.546	6863.75
182.622	6875.23
182.698	6857.69
182.775	6896.22
182.851	6945.45
182.927	6927.48
183.003	6914.18
183.08	6890.17
183.156	6916.92
183.232	6903.47
183.308	6856.92
183.385	6886.12
183.461	6949.29
183.537	6952.61
183.613	7002.43
183.69	6975.67
183.766	6931.49
183.842	6947.74
183.918	6967
183.995	7012.83
184.071	7021.96
184.147	7002.4
184.223	6964.23
184.299	7010.18
184.375	6971.94
184.452	6996.51
184.528	7124.26
184.604	7166.14
184.68	7207.84
184.756	7234.23
184.832	7251.67
184.908	7271.94
184.985	7269.2
185.061	7212.36
185.137	7242.11
185.213	7195.79
185.289	7199.01
185.365	7182.1
185.441	7182.3
185.517	7231.97
185.593	7220.72
185.669	7214.47
185.745	7251.29
185.822	7306.71
185.898	7273.68
185.974	7302.55
186.05	7276.25
186.126	7200.07
186.202	7178.21
186.278	7166
186.354	7137.6
186.43	7162.02
186.506	7152.47
186.582	7151.89
186.658	7171.15
186.734	7101.74
186.81	7116.34
186.886	7131.37
186.962	7172.45
187.038	7155.59
187.114	7122.07
187.19	7152.45
187.266	7121.89
187.341	7117.23
187.417	7095.61
187.493	7094.98
187.569	7099.6
187.645	7077.54
187.721	7035.05
187.797	7058.25
187.873	7074.69
187.949	7051.64
188.025	7027.83
188.101	7037.58
188.176	7061.32
188.252	7052.53
188.328	7081.62
188.404	7079.56
188.48	7059.14
188.556	7032.52
188.632	7028.77
188.707	7037.28
188.783	7020.12
188.859	7002.21
188.935	6968.47
189.011	6995.43
189.086	6976.02
189.162	6952.91
189.238	6945.76
189.314	6934.76
189.39	6913.09
189.465	6887.28
189.541	6947.16
189.617	6893.94
189.693	6879.72
189.768	6885.87
189.844	6967.02
189.92	6942.01
189.996	6968.87
190.071	7005.63
190.147	7000.25
190.223	7029.71
190.298	7001.68
190.374	6957.34
190.45	6999.03
190.526	7025.22
190.601	7001.43
190.677	7009.74
190.753	7108.36
190.828	7115.57
190.904	7169.11
190.98	7225.78
191.055	7263.41
191.131	7230.29
191.207	7304.77
191.282	7338.1
191.358	7300.91
191.433	7253.06
191.509	7295.66
191.585	7285.9
191.66	7287.63
191.736	7317.66
191.811	7294.83
191.887	7350.56
191.963	7437.17
192.038	7451.59
192.114	7458.7
192.189	7475.23
192.265	7458.47
192.34	7379.79
192.416	7377.96
192.491	7363.01
192.567	7365.7
192.642	7370.51
192.718	7382
192.793	7334.65
192.869	7320.43
192.944	7330.27
193.02	7357.1
193.095	7370.37
193.171	7389.88
193.246	7392.29
193.322	7384.79
193.397	7384.4
193.473	7332.76
193.548	7270.88
193.624	7290.31
193.699	7283.19
193.775	7335.27
193.85	7343.43
193.925	7375.74
194.001	7380.59
194.076	7357.09
194.152	7327.66
194.227	7303.24
194.302	7262.55
194.378	7278.93
194.453	7272.21
194.529	7318.69
194.604	7265.62
194.679	7247.17
194.755	7184.67
194.83	7223.39
194.905	7212.38
194.981	7243.87
195.056	7225.9
195.131	7240.03
195.207	7232.43
195.282	7196.15
195.357	7132.3
195.433	7187.28
195.508	7152.52
195.583	7176.45
195.659	7228.86
195.734	7244.29
195.809	7235.83
195.884	7268.54
195.96	7271.67
196.035	7322.52
196.11	7304.2
196.185	7343.7
196.261	7358.46
196.336	7465.44
196.411	7415.82
196.486	7438.5
196.561	7406.3
196.637	7432.24
196.712	7494
196.787	7507.03
196.862	7563.11
196.937	7599.93
197.013	7618.35
197.088	7645.32
197.163	7721.04
197.238	7777.69
197.313	7782.5
197.388	7833.22
197.464	7934.63
197.539	7970.17
197.614	7941.51
197.689	7988.22
197.764	8044.22
197.839	8111.41
197.914	8087.02
197.989	8165.81
198.065	8211.41
198.14	8392.87
198.215	8488.85
198.29	8521.44
198.365	8569.08
198.44	8607.14
198.515	8703.3
198.59	8758.02
198.665	8855.33
198.74	8877.48
198.815	8880.61
198.89	8957.42
198.965	9058.96
199.04	9051.59
199.115	9103.81
199.19	9255.95
199.265	9262.78
199.34	9298.17
199.415	9411.94
199.49	9489
199.565	9519.67
199.64	9604.12
199.715	9589.09
199.79	9606.81
199.865	9632.48
199.94	9622.08
200.015	9728.47
200.09	9743.17
200.165	9768.11
200.24	9781.55
200.315	9915.46
200.39	9967.57
200.464	9989.83
200.539	10001.48
200.614	10048.63
200.689	10135.29
200.764	10160.59
200.839	10221.69
200.914	10238.79
200.989	10202.75
201.063	10251.01
201.138	10190.7
201.213	10187.57
201.288	10119.32
201.363	10138
201.438	10134.87
201.512	10198.1
201.587	10143.27
201.662	10154.26
201.737	10190.2
201.812	10214
201.886	10104.75
201.961	10132.36
202.036	10088.49
202.111	10072.54
202.186	9971.3
202.26	9910.55
202.335	9828.56
202.41	9804.53
202.485	9747.52
202.559	9680.29
202.634	9589.46
202.709	9626.9
202.784	9562.61
202.858	9567.91
202.933	9503.05
203.008	9480.03
203.082	9404
203.157	9393.84
203.232	9254.17
203.306	9176.53
203.381	9071.41
203.456	8995.53
203.53	8917.35
203.605	8849.22
203.68	8766.79
203.754	8745.48
203.829	8690.6
203.904	8622.89
203.978	8583.9
204.053	8599.3
204.127	8557.01
204.202	8548.82
204.277	8478.67
204.351	8449.46
204.426	8423.8
204.5	8396.76
204.575	8276.67
204.65	8316.38
204.724	8292.69
204.799	8314.9
204.873	8305.56
204.948	8305.04
205.022	8256.56
205.097	8226.9
205.171	8271.49
205.246	8297.1
205.32	8294.5
205.395	8291.85
205.469	8262.72
205.544	8281.78
205.618	8215.09
205.693	8254.45
205.767	8217.22
205.842	8292.72
205.916	8268.04
205.991	8232.44
206.065	8248.65
206.14	8309.98
206.214	8287.6
206.289	8255.78
206.363	8293.21
206.438	8299.52
206.512	8319.78
206.586	8390.15
206.661	8414.75
206.735	8344.02
206.81	8353.21
206.884	8402.85
206.958	8356.73
207.033	8416.07
207.107	8438.8
207.181	8557.98
207.256	8536.32
207.33	8598.87
207.405	8644.82
207.479	8716.28
207.553	8744.42
207.628	8683.63
207.702	8718.9
207.776	8694.93
207.851	8713.12
207.925	8772.44
207.999	8761.47
208.073	8758.15
208.148	8766.67
208.222	8731.19
208.296	8842.45
208.371	8889.89
208.445	8927.49
208.519	9031.82
208.593	9073.32
208.668	9061.23
208.742	9061.95
208.816	9061.42
208.89	9105.15
208.965	9097.3
209.039	9129.03
209.113	9187.72
209.187	9268.2
209.261	9252.46
209.336	9324.58
209.41	9387.95
209.484	9384.91
209.558	9464.23
209.632	9510.11
209.707	9553.21
209.781	9628.95
209.855	9680.39
209.929	9741.01
210.003	9768.08
210.077	9761.96
210.151	9927.87
210.226	10048.12
210.3	10142.91
210.374	10228.67
210.448	10243.89
210.522	10281.28
210.596	10314.47
210.67	10347.13
210.744	10506.9
210.818	10629.51
210.892	10699.91
210.966	10680.88
211.041	10741.78
211.115	10727.81
211.189	10809.28
211.263	10860.93
211.337	10877.98
211.411	10926.51
211.485	10912.34
211.559	10948.18
211.633	10957.91
211.707	10846.14
211.781	10867.35
211.855	10740.91
211.929	10709.85
212.003	10643.05
212.077	10676.4
212.151	10716.01
212.225	10745.07
212.299	10702.41
212.373	10654.95
212.447	10645.84
212.52	10748.14
212.594	10755.27
212.668	10791.5
212.742	10741.29
212.816	10720.09
212.89	10700.96
212.964	10693.54
213.038	10695.52
213.112	10738.6
213.186	10784.17
213.26	10704.28
213.333	10541.4
213.407	10557.58
213.481	10557.87
213.555	10601.69
213.629	10552.44
213.703	10488.06
213.777	10475.24
213.85	10401.62
213.924	10501.37
213.998	10479.01
214.072	10441.23
214.146	10374.74
214.219	10355.51
214.293	10330.8
214.367	10322.9
214.441	10345.01
214.515	10288.44
214.588	10192.48
214.662	10054.52
214.736	9968.02
214.81	9982.27
214.883	10001.67
214.957	9948.65
215.031	9894.83
215.105	9788.62
215.178	9729.76
215.252	9690.99
215.326	9585.18
215.4	9492.19
215.473	9310.16
215.547	9224.57
215.621	9162.32
215.694	9158.52
215.768	9057.5
215.842	8984.19
215.915	8913.87
215.989	8798.7
216.063	8740.76
216.136	8719.25
216.21	8691.72
216.284	8699.33
216.357	8668.86
216.431	8620.64
216.504	8614.33
216.578	8671.86
216.652	8684.32
216.725	8653.99
216.799	8657.07
216.873	8642.01
216.946	8653.17
217.02	8611.86
217.093	8577.6
217.167	8474.85
217.24	8393.41
217.314	8348.73
217.387	8302.67
217.461	8248.88
217.535	8272.93
217.608	8205.97
217.682	8174.41
217.755	8184.56
217.829	8127.34
217.902	8111.08
217.976	8093.38
218.049	8042.34
218.123	7961.24
218.196	7961.48
218.27	7921.12
218.343	7845.72
218.417	7833.79
218.49	7808.35
218.563	7849.41
218.637	7860.77
218.71	7933.37
218.784	7965.18
218.857	8005.14
218.931	8028.69
219.004	8039.08
219.077	8049.09
219.151	8070.2
219.224	8060.92
219.298	8060.1
219.371	8106.82
219.444	8062.63
219.518	8072.01
219.591	8094.03
219.665	8205.43
219.738	8215.78
219.811	8195.54
219.885	8240.85
219.958	8276.56
220.031	8283.82
220.105	8306.63
220.178	8309.99
220.251	8280.01
220.325	8294.54
220.398	8309.56
220.471	8331.44
220.544	8370.32
220.618	8349.09
220.691	8375.94
220.764	8399.61
220.838	8431.03
220.911	8411.25
220.984	8498.65
221.057	8537.34
221.131	8554.03
221.204	8447.73
221.277	8520.32
221.35	8646.88
221.424	8642.5
221.497	8650.69
221.57	8674.4
221.643	8712.63
221.716	8763.99
221.79	8767.74
221.863	8781.32
221.936	8787.77
222.009	8802.06
222.082	8832.83
222.155	8840.67
222.229	8909.47
222.302	8937.05
222.375	8938.44
222.448	8986.29
222.521	8998.28
222.594	9000.74
222.667	8978.08
222.74	9035.83
222.814	9031.59
222.887	9020.85
222.96	9077.18
223.033	9126.78
223.106	9156.57
223.179	9185.33
223.252	9193.75
223.325	9228.12
223.398	9242.47
223.471	9270.49
223.544	9295.13
223.617	9309.2
223.69	9337.89
223.763	9299.36
223.837	9320.98
223.91	9350.98
223.983	9301.2
224.056	9265.44
224.129	9284.45
224.202	9345.57
224.275	9326.65
224.348	9297.66
224.42	9257.12
224.493	9192.8
224.566	9164.72
224.639	9186.82
224.712	9154.5
224.785	9139.24
224.858	9121.95
224.931	9103.17
225.004	9073.52
225.077	9070.54
225.15	8976.92
225.223	8973.79
225.296	9057.41
225.369	8999.7
225.442	8966.81
225.514	8981.3
225.587	8998.05
225.66	9009.75
225.733	9005.13
225.806	9020.82
225.879	9010.86
225.952	8979.48
226.025	9035.61
226.097	9082.38
226.17	9069.14
226.243	9000.51
226.316	8995.36
226.389	9006.86
226.461	9027.18
226.534	9043.26
226.607	9029.49
226.68	9112.08
226.753	9106.93
226.825	9017.14
226.898	9077.21
226.971	9082.61
227.044	9103.83
227.117	9115.05
227.189	9131.23
227.262	9169.47
227.335	9192.58
227.407	9185.7
227.48	9215.15
227.553	9224.35
227.626	9204.89
227.698	9207.97
227.771	9253.45
227.844	9231.11
227.916	9248.15
227.989	9210.02
228.062	9203.47
228.134	9295.02
228.207	9299.5
228.28	9291.17
228.352	9308.02
228.425	9313.8
228.498	9359.12
228.57	9336.93
228.643	9395.16
228.716	9394.58
228.788	9378.78
228.861	9372.28
228.934	9436.56
229.006	9451.77
229.079	9454.27
229.151	9445.7
229.224	9413.31
229.296	9439.6
229.369	9550.77
229.442	9600.14
229.514	9583.59
229.587	9633.81
229.659	9554.53
229.732	9564.16
229.804	9609.57
229.877	9693.06
229.949	9731.4
230.022	9780.5
230.094	9780.16
230.167	9761.37
230.239	9717.07
230.312	9704.07
230.384	9776.24
230.457	9772.68
230.529	9782.84
230.602	9784.67
230.674	9794.2
230.747	9843.21
230.819	9872.98
230.892	9747.46
230.964	9749.29
231.037	9775.52
231.109	9763.87
231.181	9805.57
231.254	9769.69
231.326	9751.06
231.399	9717.66
231.471	9682.59
231.544	9600.12
231.616	9648.46
231.688	9663.92
231.761	9653.82
231.833	9648.91
231.905	9558.73
231.978	9555.79
232.05	9539.08
232.122	9544.38
232.195	9518.28
232.267	9551.27
232.339	9522.42
232.412	9589.58
232.484	9556.73
232.556	9533.48
232.629	9610.04
232.701	9627.91
232.773	9638.6
232.846	9629.35
232.918	9640.87
232.99	9658.5
233.062	9705.12
233.135	9713.98
233.207	9670.15
233.279	9715.7
233.351	9748.78
233.424	9755.62
233.496	9739.97
233.568	9824.26
233.64	9785.35
233.713	9802.44
233.785	9797.62
233.857	9819.64
233.929	9774.47
234.001	9848.77
234.074	9914.15
234.146	9836.82
234.218	9840.73
234.29	9841.78
234.362	9830.62
234.434	9781.77
234.507	9747.62
234.579	9695.65
234.651	9688.28
234.723	9727.01
234.795	9747.14
234.867	9739.43
234.939	9800.85
235.012	9812.41
235.084	9820.45
235.156	9853.25
235.228	9837.79
235.3	9819.73
235.372	9827.53
235.444	9890.43
235.516	9808.18
235.588	9822.54
235.66	9835.83
235.732	9805.82
235.804	10016.37
235.876	10060.19
235.948	10128.36
236.02	10146.23
236.092	10159.32
236.164	10166.98
236.236	10159.03
236.308	10157.2
236.38	10185.48
236.452	10157.97
236.524	10184.46
236.596	10244.56
236.668	10282.48
236.74	10300.92
236.812	10331.8
236.884	10364.28
236.956	10371.84
237.028	10362.11
237.1	10343.42
237.172	10410.88
237.244	10488.2
237.316	10359.17
237.388	10340.24
237.46	10314.7
237.532	10377.52
237.604	10365.63
237.675	10437.28
237.747	10490.42
237.819	10479.2
237.891	10484.02
237.963	10481.56
238.035	10471.78
238.107	10358.92
238.178	10418.59
238.25	10430.48
238.322	10523.98
238.394	10477.39
238.466	10479.7
238.538	10529.22
238.609	10566.66
238.681	10512.01
238.753	10483.63
238.825	10502.47
238.897	10540.72
238.968	10621.54
239.04	10605.59
239.112	10725.31
239.184	10686.18
239.255	10679.92
239.327	10709.26
239.399	10732.87
239.471	10779.21
239.542	10819.3
239.614	10892.01
239.686	10811.72
239.758	10873.55
239.829	10837.97
239.901	10910.97
239.973	10925.43
240.044	10958
240.116	10970.1
240.188	10994.48
240.259	11013.41
240.331	11009.36
240.403	11042.9
240.474	10990.46
240.546	10977.98
240.618	10914.37
240.689	10917.31
240.761	10934.76
240.833	10997.26
240.904	10997.26
240.976	10992.58
241.048	11007.96
241.119	11048.59
241.191	11101.59
241.262	11164.4
241.334	11172.59
241.405	11169.22
241.477	11171.73
241.549	11183.05
241.62	11211.15
241.692	11250.04
241.763	11316.17
241.835	11337.08
241.906	11359.35
241.978	11328.7
242.049	11398.44
242.121	11466.82
242.192	11537.76
242.264	11511.26
242.335	11478.1
242.407	11526.34
242.478	11532.12
242.55	11560.37
242.621	11534.05
242.693	11531.06
242.764	11518.33
242.836	11523.73
242.907	11566.25
242.979	11601.19
243.05	11626.78
243.122	11653.1
243.193	11657.96
243.264	11588.03
243.336	11593.96
243.407	11635.79
243.479	11724.23
243.55	11739.08
243.622	11752.19
243.693	11749.01
243.764	11812.05
243.836	11784.24
243.907	11772.68
243.978	11783.66
244.05	11802.61
244.121	11763.95
244.192	11802.37
244.264	11755.04
244.335	11761.98
244.407	11703.13
244.478	11719.9
244.549	11703.18
244.62	11653.2
244.692	11646.74
244.763	11686.5
244.834	11671.27
244.906	11642.97
244.977	11671.85
245.048	11724.63
245.119	11700.77
245.191	11676.63
245.262	11617.54
245.333	11692.91
245.405	11709.1
245.476	11739.13
245.547	11759.86
245.618	11813.79
245.689	11829.21
245.761	11865.17
245.832	11871.49
245.903	11920.45
245.974	11944.31
246.045	11960.7
246.117	12050.88
246.188	12043.56
246.259	12023.85
246.33	12042.55
246.401	12057.44
246.473	12017.48
246.544	12000.94
246.615	12067.9
246.686	12068.77
246.757	12141.64
246.828	12122.79
246.899	12201.27
246.97	12166.67
247.042	12156.01
247.113	12204.6
247.184	12292.68
247.255	12288.87
247.326	12310.13
247.397	12313.84
247.468	12325.5
247.539	12339.48
247.61	12300.24
247.681	12341.7
247.752	12402.04
247.823	12376.79
247.894	12393.56
247.965	12364.4
248.037	12348.93
248.108	12282.94
248.179	12286.17
248.25	12279.32
248.321	12310.84
248.392	12255.36
248.463	12343.13
248.534	12327.76
248.605	12341.69
248.675	12317.05
248.746	12336.72
248.817	12351.13
248.888	12379.24
248.959	12323.52
249.03	12349.35
249.101	12350.61
249.172	12337.35
249.243	12262.11
249.314	12327.14
249.385	12331.14
249.456	12363.58
249.527	12363.96
249.598	12393.03
249.669	12399.53
249.739	12421.13
249.81	12435.54
249.881	12391.68
249.952	12385.27
250.023	12398.28
250.094	12338.03
250.165	12300.62
250.235	12299.7
250.306	12314.74
250.377	12273.09
250.448	12298.21
250.519	12234.87
250.59	12295.46
250.66	12292.14
250.731	12366.07
250.802	12371.28
250.873	12390.66
250.944	12415.34
251.014	12405.65
251.085	12500.42
251.156	12531.37
251.227	12574.51
251.297	12629.61
251.368	12693.43
251.439	12739.08
251.51	12791
251.58	12785.6
251.651	12777.55
251.722	12828.6
251.792	12773.26
251.863	12779.77
251.934	12848.17
252.005	12958.32
252.075	12966.42
252.146	13020.74
252.217	13072.71
252.287	13116.58
252.358	13120.29
252.429	13194.72
252.499	13189.61
252.57	13196.79
252.641	13243.12
252.711	13252.18
252.782	13204.99
252.852	13277.68
252.923	13279.61
252.994	13287.18
253.064	13339.77
253.135	13322.32
253.205	13300.44
253.276	13378
253.347	13442.98
253.417	13419.26
253.488	13401.38
253.558	13386.53
253.629	13392.55
253.699	13405.04
253.77	13423.26
253.841	13421.91
253.911	13430.44
253.982	13449.15
254.052	13478.74
254.123	13489.69
254.193	13495.66
254.264	13638.25
254.334	13603.84
254.405	13567.68
254.475	13541.75
254.546	13541.75
254.616	13608.46
254.687	13642.59
254.757	13667.52
254.827	13674.84
254.898	13701.41
254.968	13710.23
255.039	13694.22
255.109	13722.04
255.18	13687.96
255.25	13613.04
255.321	13642.06
255.391	13597.62
255.461	13682.89
255.532	13597.23
255.602	13589.86
255.673	13536.64
255.743	13498.94
255.813	13421.09
255.884	13468.96
255.954	13508.2
256.024	13578.44
256.095	13584.9
256.165	13543.05
256.235	13564.36
256.306	13549.22
256.376	13593.91
256.446	13633.49
256.517	13667.52
256.587	13714.38
256.657	13741.42
256.728	13769.43
256.798	13778.64
256.868	13780.03
256.938	13745.37
257.009	13797.68
257.079	13831.76
257.149	13931.59
257.219	13863.67
257.29	13906.14
257.36	13841.64
257.43	13876.01
257.5	13807.61
257.571	13799.56
257.641	13839.13
257.711	13800.52
257.781	13834.84
257.852	13853.55
257.922	13791.07
257.992	13797.92
258.062	13788.52
258.132	13826.6
258.202	13833.93
258.273	13845.06
258.343	13915.73
258.413	13906.14
258.483	13907.78
258.553	13877.31
258.623	13847.67
258.693	13883.15
258.764	13953.67
258.834	14029.74
258.904	14046.18
258.974	14039.82
259.044	14053.94
259.114	14084.45
259.184	14116.85
259.254	14124.08
259.324	14071.39
259.394	14115.93
259.464	14199.38
259.535	14210.03
259.605	14204
259.675	14192.24
259.745	14231.58
259.815	14202.32
259.885	14201.5
259.955	14321.61
260.025	14314.77
260.095	14324.31
260.165	14352.61
260.235	14416.24
260.305	14391.84
260.375	14355.4
260.445	14453.6
260.515	14515.64
260.585	14566.25
260.655	14569.91
260.725	14612.62
260.795	14647.91
260.865	14721.42
260.934	14682.33
261.004	14705.66
261.074	14717.71
261.144	14781.58
261.214	14820.19
261.284	14828.29
261.354	14874.13
261.424	14826.13
261.494	14896.66
261.564	14910.1
261.634	14934.35
261.703	14856.65
261.773	14894.15
261.843	14932.71
261.913	14918.64
261.983	14856.26
262.053	14877.76
262.123	14879.45
262.192	14839.34
262.262	14883.16
262.332	14844.98
262.402	14882.77
262.472	14898.58
262.541	14833.89
262.611	14884.26
262.681	14850.76
262.751	14891.21
262.821	14890.77
262.89	14856.02
262.96	14879.35
263.03	14953.63
263.1	14976.81
263.169	15006.84
263.239	15039.04
263.309	15104.21
263.379	15130.24
263.448	15157.28
263.518	15169.81
263.588	15182.83
263.657	15262.22
263.727	15300.25
263.797	15304.35
263.867	15306.52
263.936	15262.56
264.006	15322.86
264.076	15312.4
264.145	15311.77
264.215	15295
264.285	15338.72
264.354	15293.55
264.424	15282.95
264.494	15226.41
264.563	15215.37
264.633	15301.65
264.702	15323.15
264.772	15267.09
264.842	15268.1
264.911	15297.8
264.981	15263.04
265.05	15281.65
265.12	15262.95
265.19	15278.13
265.259	15315.25
265.329	15345.56
265.398	15374.54
265.468	15485.59
265.537	15481.54
265.607	15526.27
265.676	15573.55
265.746	15606.72
265.815	15675.65
265.885	15681.53
265.955	15677
266.024	15673
266.094	15608.75
266.163	15670.68
266.232	15746.06
266.302	15754.69
266.371	15783.08
266.441	15802.07
266.51	15854.61
266.58	15868.16
266.649	15851.24
266.719	15914.47
266.788	15945.32
266.858	16014.44
266.927	15933.27
266.996	15962.87
267.066	15989.38
267.135	15958.77
267.205	15995.16
267.274	16012.61
267.343	16064.71
267.413	16081.44
267.482	16151.56
267.552	16213.07
267.621	16170.89
267.69	16115.71
267.76	16147.57
267.829	16174.7
267.898	16196.73
267.968	16166.61
268.037	16197.5
268.106	16250.9
268.176	16220.15
268.245	16224.54
268.314	16225.55
268.384	16292.11
268.453	16314.72
268.522	16335.64
268.592	16408.9
268.661	16388.85
268.73	16422.54
268.799	16420.22
268.869	16508.14
268.938	16460.95
269.007	16447.94
269.076	16466.01
269.146	16529.44
269.215	16550.98
269.284	16621.83
269.353	16614.79
269.422	16630.12
269.492	16630.36
269.561	16536.67
269.63	16572.96
269.699	16562.45
269.768	16576.28
269.838	16586.16
269.907	16633.15
269.976	16603.9
270.045	16540.08
270.114	16580.66
270.183	16588.52
270.253	16618.5
270.322	16562.93
270.391	16583.46
270.46	16651.27
270.529	16695.42
270.598	16738.5
270.667	16751.8
270.736	16722.26
270.806	16760.87
270.875	16823.76
270.944	16836.58
271.013	16970.81
271.082	16998.13
271.151	17044.83
271.22	17014.28
271.289	17033.79
271.358	17038.85
271.427	17083.39
271.496	17110.86
271.565	17106.57
271.634	17119.49
271.703	17249.6
271.772	17311.73
271.841	17334.72
271.91	17307.1
271.979	17333.51
272.048	17308.16
272.117	17357.32
272.186	17365.08
272.255	17419.54
272.324	17460.16
272.393	17495.92
272.462	17487.49
272.531	17507.01
272.6	17515.25
272.669	17584.21
272.738	17597.03
272.807	17623.63
272.876	17608.79
272.945	17753.61
273.013	17824.79
273.082	17898.95
273.151	17800.6
273.22	17847.83
273.289	17877.37
273.358	17968.83
273.427	17968.88
273.496	18026.13
273.564	18057.07
273.633	18108.44
273.702	18091.19
273.771	18103.1
273.84	18138.66
273.909	18182.18
273.977	18216.01
274.046	18234.08
274.115	18292.53
274.184	18285.54
274.253	18312.48
274.322	18385.45
274.39	18328.44
274.459	18311.62
274.528	18256.34
274.597	18284.1
274.665	18303.76
274.734	18364.73
274.803	18372.19
274.872	18399.95
274.94	18382.31
275.009	18616.9
275.078	18616.23
275.147	18656.37
275.215	18682.54
275.284	18744.65
275.353	18753.18
275.421	18724.56
275.49	18826.82
275.559	18831.16
275.627	18871.11
275.696	18891.15
275.765	18926.38
275.833	18945.22
275.902	18991.73
275.971	19074.04
276.039	19170.03
276.108	19233.45
276.177	19280.1
276.245	19276.29
276.314	19307.37
276.383	19375.46
276.451	19209.88
276.52	19264.34
276.588	19351.37
276.657	19415.85
276.725	19430.69
276.794	19478.26
276.863	19557.38
276.931	19512.71
277	19579.55
277.068	19653.57
277.137	19754.87
277.205	19799.88
277.274	19912.45
277.342	19987.63
277.411	19970.86
277.48	19961.95
277.548	19968.65
277.617	20001.95
277.685	20029.13
277.754	20090.09
277.822	20108.21
277.89	20198.05
277.959	20213.66
278.027	20185.8
278.096	20186.29
278.164	20315.45
278.233	20332.18
278.301	20336.9
278.37	20405.57
278.438	20407.12
278.507	20461.52
278.575	20414.25
278.643	20448.95
278.712	20408.27
278.78	20411.36
278.849	20496.36
278.917	20581.67
278.985	20607.6
279.054	20666.01
279.122	20757.39
279.191	20795.51
279.259	20829.87
279.327	20788.71
279.396	20890.79
279.464	20925.06
279.532	20990.27
279.601	21022.57
279.669	21058.76
279.737	21164.03
279.806	21222.3
279.874	21297.92
279.942	21327.08
280.011	21368.53
280.079	21429.21
280.147	21534.57
280.215	21590
280.284	21621.71
280.352	21617.62
280.42	21688.61
280.488	21709.1
280.557	21724.09
280.625	21768.15
280.693	21814.85
280.761	21880.65
280.83	21856.79
280.898	21951.89
280.966	21937.81
281.034	21862.56
281.102	21857.5
281.171	21871.09
281.239	21937.24
281.307	21952.81
281.375	21956.81
281.443	22077.04
281.512	22113.44
281.58	22192.23
281.648	22186.3
281.716	22225.15
281.784	22263.76
281.852	22277.31
281.92	22300.93
281.989	22386.27
282.057	22386.9
282.125	22575.27
282.193	22605.6
282.261	22660.94
282.329	22687.27
282.397	22752.97
282.465	22822.24
282.533	22921.26
282.601	22930.81
282.67	22886.78
282.738	22906.12
282.806	22986
282.874	22990.2
282.942	23044.21
283.01	23052.74
283.078	23116.91
283.146	23148.93
283.214	23227.87
283.282	23297.79
283.35	23391.97
283.418	23410.15
283.486	23470.23
283.554	23376.15
283.622	23430.51
283.69	23478
283.758	23508.53
283.826	23573.34
283.894	23643.42
283.962	23757.16
284.03	23853.52
284.098	23921.8
284.165	23951.89
284.233	24003.4
284.301	24027.32
284.369	24044.64
284.437	24073.1
284.505	24100.87
284.573	24202.88
284.641	24205.25
284.709	24273.8
284.777	24260.78
284.845	24336
284.912	24396.63
284.98	24462.72
285.048	24480.47
285.116	24546.85
285.184	24632.39
285.252	24665.53
285.319	24670.35
285.387	24678.65
285.455	24664.52
285.523	24732.06
285.591	24775.37
285.659	24826.71
285.726	24921.48
285.794	24915.88
285.862	24952.17
285.93	24999.97
285.997	25025.36
286.065	25059.8
286.133	25062.94
286.201	25099.94
286.269	25087.35
286.336	25107.81
286.404	25130.2
286.472	25203.79
286.539	25177.59
286.607	25179.96
286.675	25229.62
286.743	25299.78
286.81	25326.57
286.878	25431.88
286.946	25443.08
287.013	25492.87
287.081	25530.14
287.149	25511.21
287.216	25627.09
287.284	25653.15
287.352	25705.08
287.419	25749.4
287.487	25841.89
287.555	25912.86
287.622	25948.86
287.69	26019.1
287.758	26112.04
287.825	26139.65
287.893	26147.08
287.96	26211.36
288.028	26283.69
288.096	26339.7
288.163	26402.86
288.231	26413.43
288.298	26446.42
288.366	26547.15
288.433	26578.77
288.501	26602.52
288.569	26665.72
288.636	26698.57
288.704	26782.98
288.771	26852.28
288.839	26863.53
288.906	26889.32
288.974	26966.44
289.041	27015.06
289.109	27020.47
289.176	27081.06
289.244	27149.59
289.311	27241.8
289.379	27328.2
289.446	27377
289.514	27413.81
289.581	27447.39
289.649	27494.96
289.716	27547.73
289.783	27568.84
289.851	27682.12
289.918	27718.97
289.986	27801.21
290.053	27855.67
290.121	27904
290.188	27951.45
290.255	28099.49
290.323	28141.19
290.39	28168.31
290.458	28245.14
290.525	28341.11
290.592	28370.4
290.66	28415.29
290.727	28443.96
290.794	28537.07
290.862	28599.05
290.929	28663.78
290.996	28714.1
291.064	28803.18
291.131	28883.26
291.198	28968.7
291.266	29007.43
291.333	29074.46
291.4	29149.77
291.468	29255.26
291.535	29293.17
291.602	29350.85
291.669	29363.58
291.737	29409.75
291.804	29445.78
291.871	29540.63
291.938	29614.01
292.006	29760.35
292.073	29836.71
292.14	29926.63
292.207	29942.98
292.275	29980.28
292.342	30052.03
292.409	30172.57
292.476	30299.9
292.543	30307.6
292.611	30355.5
292.678	30463.27
292.745	30594.4
292.812	30650.6
292.879	30676.98
292.946	30732.08
293.014	30819.2
293.081	30886.81
293.148	30981.27
293.215	31085.73
293.282	31110.03
293.349	31181.59
293.416	31151.51
293.484	31251.53
293.551	31312.97
293.618	31415.79
293.685	31539.85
293.752	31567.01
293.819	31616.51
293.886	31618.11
293.953	31701.33
294.02	31784.72
294.087	31844.01
294.154	31866.72
294.221	31966.43
294.288	32017.14
294.356	32129.25
294.423	32202.98
294.49	32239.74
294.557	32343.11
294.624	32348.59
294.691	32474.73
294.758	32526.14
294.825	32595.65
294.892	32625.39
294.959	32689.25
295.026	32751.91
295.093	32777.74
295.16	32834.6
295.226	32869.68
295.293	33000.56
295.36	33062.53
295.427	33152.06
295.494	33245.72
295.561	33320.49
295.628	33441.12
295.695	33542.28
295.762	33601.71
295.829	33685.63
295.896	33784.55
295.963	33854.28
296.03	33942.19
296.096	33989.81
296.163	34082.66
296.23	34189.96
296.297	34288.91
296.364	34332.2
296.431	34413.13
296.498	34461.86
296.564	34592.18
296.631	34664.81
296.698	34666.07
296.765	34787.7
296.832	34804.63
296.899	34803.32
296.965	34913.38
297.032	34903.72
297.099	35012.36
297.166	35098.51
297.233	35141.93
297.299	35171.66
297.366	35227.65
297.433	35294
297.5	35392.69
297.566	35443.54
297.633	35481.67
297.7	35541.98
297.767	35595.14
297.833	35667.25
297.9	35730.94
297.967	35724.44
298.033	35817.66
298.1	35963.65
298.167	35971.8
298.234	36041.96
298.3	36132.11
298.367	36165.55
298.434	36236.37
298.5	36246.86
298.567	36279.66
298.634	36328.78
298.7	36452.87
298.767	36498.55
298.834	36591.59
298.9	36614.31
298.967	36636.44
299.033	36723.38
299.1	36821.84
299.167	36922.31
299.233	36959.4
299.3	37058.52
299.366	37176.31
299.433	37268.33
299.5	37231.72
299.566	37307.78
299.633	37420.24
299.699	37513.12
299.766	37553.42
299.832	37613
299.899	37703.18
299.965	37782.66
300.032	37815.39
300.099	37876.09
300.165	37954.76
300.232	37986.76
300.298	38036.67
300.365	38139.76
300.431	38192.75
300.498	38215.67
300.564	38275.89
300.631	38360.35
300.697	38458.18
300.763	38495.91
300.83	38540.17
300.896	38630.59
300.963	38713.16
301.029	38757.76
301.096	38815.13
301.162	38914.36
301.229	38947.92
301.295	38956.67
301.361	39017.34
301.428	39086.93
301.494	39073.67
301.561	39130.42
301.627	39197.79
301.693	39257.1
301.76	39308.21
301.826	39335.6
301.892	39423.25
301.959	39504.34
302.025	39528.05
302.092	39548.31
302.158	39631.77
302.224	39683.81
302.291	39712.91
302.357	39743.77
302.423	39777.05
302.49	39789.25
302.556	39859.22
302.622	39910
302.688	40005.29
302.755	40102.92
302.821	40166.42
302.887	40261.74
302.954	40311.26
303.02	40394.85
303.086	40461.13
303.152	40512.64
303.219	40562.2
303.285	40619.07
303.351	40691.29
303.417	40757.53
303.483	40780.76
303.55	40807.78
303.616	40855.56
303.682	40899.34
303.748	40931.17
303.815	41027.37
303.881	41113.2
303.947	41115.24
304.013	41170.31
304.079	41179.3
304.145	41146.35
304.212	41207.88
304.278	41224.3
304.344	41258.77
304.41	41250.84
304.476	41270.92
304.542	41301.68
304.608	41364.48
304.674	41354.42
304.741	41373.92
304.807	41425.59
304.873	41481.35
304.939	41567.05
305.005	41557.23
305.071	41596.79
305.137	41645.06
305.203	41602.81
305.269	41637.13
305.335	41745.61
305.401	41774.97
305.467	41813.23
305.533	41892.91
305.599	41950.67
305.666	42029.42
305.732	42073.52
305.798	42149.46
305.864	42276.76
305.93	42323.87
305.996	42362.43
306.062	42409.83
306.128	42437.84
306.194	42432.78
306.259	42466.57
306.325	42487.48
306.391	42554.14
306.457	42640.05
306.523	42700.78
306.589	42839.96
306.655	42853.43
306.721	42810.88
306.787	42810.59
306.853	42896.13
306.919	42882.42
306.985	42892.53
307.051	42906.25
307.117	42917.77
307.183	42948.85
307.248	42891.41
307.314	42947.63
307.38	43003.22
307.446	43057.49
307.512	43072.57
307.578	43131.7
307.644	43150.32
307.709	43180.43
307.775	43211.31
307.841	43217.73
307.907	43263.01
307.973	43226.58
308.039	43280.66
308.104	43346.66
308.17	43398.59
308.236	43389.01
308.302	43442.75
308.368	43447.27
308.433	43487.54
308.499	43512.34
308.565	43513.51
308.631	43573.19
308.696	43548.92
308.762	43542.16
308.828	43571.44
308.894	43550.63
308.959	43522.95
309.025	43549.07
309.091	43583.22
309.156	43599.18
309.222	43653.66
309.288	43638.24
309.354	43617.33
309.419	43632.31
309.485	43618.59
309.551	43675.02
309.616	43668.36
309.682	43688.5
309.748	43709.65
309.813	43728.28
309.879	43741.9
309.945	43760.87
310.01	43763.4
310.076	43800.13
310.141	43809.56
310.207	43804.55
310.273	43849.98
310.338	43912.19
310.404	43898.13
310.469	43894.73
310.535	43896.19
310.601	43853.76
310.666	43919.35
310.732	43975.58
310.797	43975.39
310.863	43974.27
310.928	43986.72
310.994	44041.65
311.059	44087.24
311.125	44111.07
311.191	44184.51
311.256	44193.56
311.322	44251.65
311.387	44236.57
311.453	45117.48
311.518	45165.98
311.584	45192.36
311.649	45245.29
311.715	45245
311.78	45284.16
311.846	45289.07
311.911	45355.44
311.976	45413
312.042	45396.26
312.107	45383.03
312.173	45391.88
312.238	45432.36
312.304	45447.83
312.369	45446.81
312.434	45443.06
312.5	45457.22
312.565	45392.2
312.631	45439.84
312.696	45436.48
312.761	45491.16
312.827	44661.89
312.892	44744.99
312.958	44782.95
313.023	44820.19
313.088	44861.01
313.154	44866.85
313.219	44880.04
313.284	44871.52
313.35	44887.38
313.415	44880.52
313.48	44897.7
313.546	44945.59
313.611	44999.07
313.676	45013.09
313.741	45016.35
313.807	45070.62
313.872	45112.18
313.937	45163.96
314.003	45222.66
314.068	45260.05
314.133	45307.55
314.198	45305.22
314.264	45271.42
314.329	45268.35
314.394	45270.55
314.459	45287.29
314.525	45376.36
314.59	45404.44
314.655	45394.22
314.72	45445.29
314.785	45489.62
314.851	45509.52
314.916	45488.55
314.981	45477.69
315.046	45474.77
315.111	45486.45
315.176	45476.32
315.242	45528.27
315.307	45568.87
315.372	45546.82
315.437	45539.61
315.502	45535.04
315.567	45598.62
315.632	45576.42
315.698	45610.3
315.763	45624.57
315.828	45619.11
315.893	45637.28
315.958	45636.01
316.023	45646.72
316.088	45603.49
316.153	45560.47
316.218	45549.28
316.283	45508.26
316.348	45454.73
316.413	45460.71
316.479	45415.46
316.544	45305.59
316.609	45205.76
316.674	45067.46
316.739	44938.34
316.804	44840.05
316.869	44711.79
316.934	44569.97
316.999	44453.84
317.064	44272.31
317.129	44116.91
317.194	43972.97
317.259	43764.04
317.324	43566.53
317.389	43382.93
317.454	43217.11
317.518	43071.41
317.583	42958.95
317.648	42837.86
317.713	42679.44
317.778	42445.03
317.843	42317.88
317.908	42154.29
317.973	41985.08
318.038	41854.94
318.103	41693.52
318.168	41529.01
318.233	41373.26
318.297	41166.73
318.362	40988.4
318.427	40804.86
318.492	40657.77
318.557	40448.06
318.622	40305.66
318.687	40185.02
318.751	39992.5
318.816	39831.46
318.881	39655
318.946	39409.55
319.011	39197.59
319.075	38995.96
319.14	38795.43
319.205	38567.62
319.27	38389.78
319.335	38157.4
319.399	37944.78
319.464	37786.48
319.529	37530.33
319.594	37324.84
319.658	37142.21
319.723	36913.24
319.788	36722.01
319.853	36457.08
319.917	36274.97
319.982	36015.02
320.047	35794.12
320.112	35623.68
320.176	35351.74
320.241	35128.78
320.306	34935.9
320.37	34696.91
320.435	34501.51
320.5	34324.95
320.564	34098.32
320.629	33857.59
320.694	33662.52
320.758	33419.38
320.823	33160.95
320.888	32967.05
320.952	32701.87
321.017	32461.36
321.082	32239.47
321.146	32032.53
321.211	31821.57
321.275	31585.76
321.34	31337.86
321.405	31086.8
321.469	30828.83
321.534	30595.8
321.598	30339.33
321.663	30138.25
321.727	29944.43
321.792	29677.26
321.857	29431.16
321.921	29205.36
321.986	28966.97
322.05	28666.45
322.115	28441.42
322.179	28197.35
322.244	27907.56
322.308	27700.85
322.373	27451.6
322.437	27226.33
322.502	27024.33
322.566	26772.3
322.631	26533.42
322.695	26305.98
322.76	26061.56
322.824	25838
322.889	25580.45
322.953	25323.35
323.018	24986.37
323.082	24664.44
323.146	24390.25
323.211	24105.37
323.275	23842.31
323.34	23580.72
323.404	23357.32
323.468	23099.1
323.533	22842.77
323.597	22588.28
323.662	22300.86
323.726	22070.69
323.79	21782.92
323.855	21454.47
323.919	21172.87
323.983	20915.99
324.048	20512.67
324.112	20662.15
324.177	19846.81
324.241	18776.47
324.305	17716.4
324.37	16677.07
324.434	15662.8
324.498	15384.01
324.562	15066.45
324.627	14708.82
324.691	14355.8
324.755	13960.42
324.82	13502.61
324.884	13022.77
324.948	12547.65
325.012	11961.22
325.077	11221.24
