Data from 20250701_urea_2M_exp3_MAYP1162681_02-19-49-801.txt Node
Date: Wed Jul 02 02:19:49 BST 2025
User: adleo
Spectrometer: MAYP116268
Trigger mode: 0
Integration Time (sec): 4.000000E0
Scans to average: 1
Electric dark correction enabled: true
Nonlinearity correction enabled: true
Boxcar width: 10
XAxis mode: Wavelengths
Number of Pixels in Spectrum: 2068
>>>>>Begin Spectral Data<<<<<
179.565	3668.61
179.642	3862.52
179.718	4016.21
179.795	4150.9
179.871	4266.62
179.948	4323.08
180.024	4394.98
180.101	4474.44
180.177	4525.67
180.254	4604.7
180.33	4682.5
180.407	4950.75
180.483	5239.86
180.56	5533.57
180.636	5798.8
180.712	5762.08
180.789	5801.61
180.865	5845.04
180.942	5873.53
181.018	5914.64
181.095	5964.89
181.171	5983.84
181.248	5987.1
181.324	6038.8
181.4	6064.86
181.477	6102.11
181.553	6152.41
181.63	6225.51
181.706	6283.45
181.782	6310.69
181.859	6311.03
181.935	6330.9
182.011	6315.88
182.088	6367.63
182.164	6431.19
182.24	6482.43
182.317	6513
182.393	6504.27
182.469	6547.52
182.546	6593.52
182.622	6608.69
182.698	6596.34
182.775	6641.53
182.851	6686.66
182.927	6660.49
183.003	6647.48
183.08	6624.68
183.156	6660.98
183.232	6649.35
183.308	6603.83
183.385	6635.23
183.461	6693.19
183.537	6691.9
183.613	6741.22
183.69	6715.57
183.766	6680.21
183.842	6703.41
183.918	6716.81
183.995	6760.31
184.071	6774.05
184.147	6756.28
184.223	6719.42
184.299	6760.07
184.375	6724.34
184.452	6746.98
184.528	6872.86
184.604	6906.32
184.68	6947.28
184.756	6964.92
184.832	6977.89
184.908	6996.85
184.985	6989.65
185.061	6937.25
185.137	6973.42
185.213	6928.9
185.289	6933.37
185.365	6906.38
185.441	6900.04
185.517	6947.77
185.593	6933.07
185.669	6924.95
185.745	6962.47
185.822	7019.84
185.898	6987.6
185.974	7014.48
186.05	6990.31
186.126	6916.99
186.202	6892.6
186.278	6877.37
186.354	6846.91
186.43	6867.86
186.506	6861.91
186.582	6863.21
186.658	6881.11
186.734	6811.96
186.81	6817.1
186.886	6828
186.962	6871.12
187.038	6856.52
187.114	6833.44
187.19	6861.22
187.266	6826.5
187.341	6826.21
187.417	6802.43
187.493	6802.57
187.569	6810.21
187.645	6788.74
187.721	6747.08
187.797	6774.22
187.873	6795.69
187.949	6774.86
188.025	6753.18
188.101	6764.8
188.176	6786.41
188.252	6775.46
188.328	6798.45
188.404	6803.92
188.48	6787.45
188.556	6763.67
188.632	6766.84
188.707	6767.57
188.783	6757.95
188.859	6745.81
188.935	6706.75
189.011	6725.15
189.086	6705.13
189.162	6682.5
189.238	6676.31
189.314	6668.39
189.39	6652.83
189.465	6625.16
189.541	6683.19
189.617	6633.2
189.693	6615.49
189.768	6627.5
189.844	6711.46
189.92	6687.99
189.996	6715.9
190.071	6749.95
190.147	6745.01
190.223	6773.02
190.298	6748.51
190.374	6705.34
190.45	6743.36
190.526	6771.65
190.601	6757.82
190.677	6759.74
190.753	6853.72
190.828	6872.54
190.904	6924.63
190.98	6972.58
191.055	7008.18
191.131	6976.22
191.207	7048.03
191.282	7081.16
191.358	7040.62
191.433	6986.1
191.509	7028.44
191.585	7019.17
191.66	7016.96
191.736	7043.52
191.811	7010.03
191.887	7059.06
191.963	7136.17
192.038	7155.25
192.114	7157.84
192.189	7171.63
192.265	7166.59
192.34	7090.04
192.416	7075.78
192.491	7066.07
192.567	7065.3
192.642	7073.09
192.718	7075.49
192.793	7038.25
192.869	7017.31
192.944	7033.87
193.02	7060.93
193.095	7078.52
193.171	7093.41
193.246	7093.32
193.322	7088.32
193.397	7093.46
193.473	7046.31
193.548	6989.98
193.624	7009.11
193.699	6999.07
193.775	7050.36
193.85	7053.1
193.925	7084.43
194.001	7086.21
194.076	7058.82
194.152	7030.56
194.227	7008.4
194.302	6973.69
194.378	6981.04
194.453	6975.66
194.529	7012.57
194.604	6963.37
194.679	6939.3
194.755	6877.98
194.83	6918.46
194.905	6906.16
194.981	6935.66
195.056	6912.13
195.131	6928.56
195.207	6922.65
195.282	6897.34
195.357	6830.43
195.433	6883.47
195.508	6841.18
195.583	6869.38
195.659	6912.49
195.734	6934.79
195.809	6929.79
195.884	6965.8
195.96	6966.81
196.035	7018.07
196.11	7005.23
196.185	7047.32
196.261	7060.87
196.336	7167.48
196.411	7127.38
196.486	7148.91
196.561	7125.07
196.637	7157.15
196.712	7212.4
196.787	7216.87
196.862	7264.62
196.937	7302.39
197.013	7317.92
197.088	7348.71
197.163	7418.45
197.238	7480.61
197.313	7482.92
197.388	7527.38
197.464	7625.35
197.539	7659.28
197.614	7639.58
197.689	7680.3
197.764	7733.11
197.839	7798.65
197.914	7776.48
197.989	7845.87
198.065	7886.98
198.14	8058.82
198.215	8149.15
198.29	8189.77
198.365	8238.69
198.44	8280.34
198.515	8375.52
198.59	8432.34
198.665	8524.62
198.74	8555.71
198.815	8556.92
198.89	8630.82
198.965	8730.41
199.04	8714.91
199.115	8774.38
199.19	8922.3
199.265	8930.58
199.34	8961.77
199.415	9078.31
199.49	9151.26
199.565	9181.82
199.64	9270.35
199.715	9253.78
199.79	9272.12
199.865	9292.78
199.94	9285.46
200.015	9390.58
200.09	9402.28
200.165	9419.33
200.24	9439.7
200.315	9564.24
200.39	9616.59
200.464	9634.94
200.539	9642.26
200.614	9692.47
200.689	9765.82
200.764	9780.23
200.839	9842.04
200.914	9858.55
200.989	9821.46
201.063	9869.28
201.138	9819.28
201.213	9818.17
201.288	9755.57
201.363	9777.24
201.438	9779.65
201.512	9827.5
201.587	9763.24
201.662	9780.97
201.737	9819.74
201.812	9851.34
201.886	9742.97
201.961	9769.96
202.036	9734.81
202.111	9721.32
202.186	9627.81
202.26	9575.5
202.335	9503.88
202.41	9482.36
202.485	9426.9
202.559	9355.84
202.634	9264.16
202.709	9289.52
202.784	9220.14
202.858	9221.3
202.933	9154.62
203.008	9129.63
203.082	9070.47
203.157	9070.13
203.232	8925.49
203.306	8851.91
203.381	8735.99
203.456	8654.89
203.53	8580.57
203.605	8514.09
203.68	8435.29
203.754	8414.09
203.829	8356.42
203.904	8286.24
203.978	8240.66
204.053	8252.01
204.127	8210.84
204.202	8210.36
204.277	8147.25
204.351	8126.42
204.426	8104.62
204.5	8077.1
204.575	7956.56
204.65	7990.2
204.724	7963.34
204.799	7988.14
204.873	7979.33
204.948	7974.76
205.022	7938.32
205.097	7911.51
205.171	7953.92
205.246	7980.53
205.32	7973.81
205.395	7968.71
205.469	7939.3
205.544	7965.91
205.618	7909.49
205.693	7949.51
205.767	7904.4
205.842	7981.03
205.916	7959.49
205.991	7924.67
206.065	7942.46
206.14	7993.97
206.214	7975.82
206.289	7947.91
206.363	7986.87
206.438	7996.11
206.512	8025.79
206.586	8092.73
206.661	8117.04
206.735	8043.64
206.81	8046.38
206.884	8098.55
206.958	8064.22
207.033	8123.54
207.107	8145.54
207.181	8253.82
207.256	8232.6
207.33	8298.35
207.405	8340.05
207.479	8405.48
207.553	8428.28
207.628	8372.17
207.702	8410.07
207.776	8384.38
207.851	8398.38
207.925	8451.91
207.999	8439.44
208.073	8434.87
208.148	8443.68
208.222	8401.09
208.296	8507.6
208.371	8559.94
208.445	8600.27
208.519	8694.38
208.593	8737.16
208.668	8726.33
208.742	8737.55
208.816	8740.49
208.89	8781.02
208.965	8773.37
209.039	8798.5
209.113	8862.76
209.187	8937.82
209.261	8928.25
209.336	8995.82
209.41	9067.51
209.484	9068.23
209.558	9145.6
209.632	9187.57
209.707	9231.48
209.781	9307.3
209.855	9359.31
209.929	9414.09
210.003	9433.97
210.077	9433.4
210.151	9590.71
210.226	9698.75
210.3	9784.81
210.374	9867.03
210.448	9883.07
210.522	9924.26
210.596	9958.84
210.67	9985.09
210.744	10141.07
210.818	10255.19
210.892	10323.16
210.966	10300.43
211.041	10355.97
211.115	10332.76
211.189	10409.92
211.263	10456.7
211.337	10481.46
211.411	10527.71
211.485	10509.21
211.559	10540.95
211.633	10546.97
211.707	10442.01
211.781	10468.18
211.855	10344.7
211.929	10314.7
212.003	10251.62
212.077	10277.64
212.151	10317.35
212.225	10343.27
212.299	10305.53
212.373	10256.49
212.447	10240.35
212.52	10335.16
212.594	10335.59
212.668	10374.51
212.742	10327.16
212.816	10306.44
212.89	10278.36
212.964	10269.83
213.038	10280.81
213.112	10323.99
213.186	10377.4
213.26	10297.96
213.333	10135.78
213.407	10151.67
213.481	10152.53
213.555	10184.07
213.629	10135.69
213.703	10068.24
213.777	10059.76
213.85	9982.92
213.924	10095
213.998	10083.67
214.072	10048.06
214.146	10000.32
214.219	9980.86
214.293	9956.44
214.367	9947.29
214.441	9970.12
214.515	9922.76
214.588	9822.73
214.662	9689.66
214.736	9600.43
214.81	9610.53
214.883	9628.68
214.957	9571.97
215.031	9519.32
215.105	9427.86
215.178	9359.82
215.252	9322.75
215.326	9221.53
215.4	9137.46
215.473	8947.61
215.547	8864.45
215.621	8797.79
215.694	8786.09
215.768	8683.28
215.842	8614.75
215.915	8544.3
215.989	8431.23
216.063	8370.76
216.136	8348.96
216.21	8330.68
216.284	8335.39
216.357	8317.11
216.431	8273.52
216.504	8273.61
216.578	8326.03
216.652	8336.27
216.725	8316.34
216.799	8320.29
216.873	8299.75
216.946	8309.22
217.02	8268.99
217.093	8240.17
217.167	8141.22
217.24	8057.97
217.314	8032.06
217.387	7984.37
217.461	7936.18
217.535	7957.97
217.608	7896.41
217.682	7871.83
217.755	7875.87
217.829	7819.92
217.902	7796.3
217.976	7780.72
218.049	7735.28
218.123	7661.03
218.196	7657.86
218.27	7619.34
218.343	7547.81
218.417	7535.74
218.49	7507.85
218.563	7550.49
218.637	7555.4
218.71	7626.91
218.784	7650.29
218.857	7679.81
218.931	7703.59
219.004	7714.17
219.077	7734.19
219.151	7751.59
219.224	7745.53
219.298	7741.97
219.371	7785.07
219.444	7745.41
219.518	7751.18
219.591	7768.35
219.665	7869.27
219.738	7884.51
219.811	7863.61
219.885	7911.7
219.958	7950.08
220.031	7956.14
220.105	7980.48
220.178	7986.79
220.251	7957.87
220.325	7984.14
220.398	8004.39
220.471	8023.48
220.544	8063.55
220.618	8034.87
220.691	8061.95
220.764	8079.22
220.838	8108.18
220.911	8094.99
220.984	8181.22
221.057	8219.12
221.131	8241.15
221.204	8147.05
221.277	8215.82
221.35	8345.58
221.424	8340.72
221.497	8352.27
221.57	8375.45
221.643	8406.54
221.716	8453.9
221.79	8458.08
221.863	8473.05
221.936	8471.71
222.009	8488.49
222.082	8513.95
222.155	8520.21
222.229	8586.3
222.302	8615.31
222.375	8624.17
222.448	8668.83
222.521	8676.39
222.594	8680.53
222.667	8650.08
222.74	8703.25
222.814	8693.86
222.887	8675.42
222.96	8726.97
223.033	8774.59
223.106	8802.83
223.179	8829.5
223.252	8837.59
223.325	8871.85
223.398	8879.32
223.471	8917.91
223.544	8935.38
223.617	8948.43
223.69	8978.84
223.763	8941.05
223.837	8964.97
223.91	8989.76
223.983	8935.33
224.056	8898.04
224.129	8919.41
224.202	8978.44
224.275	8970.73
224.348	8946.33
224.42	8905.8
224.493	8845.68
224.566	8814
224.639	8832.24
224.712	8806.77
224.785	8792.56
224.858	8780.68
224.931	8765.99
225.004	8723.16
225.077	8724.89
225.15	8631.55
225.223	8625.2
225.296	8708.18
225.369	8650.38
225.442	8614.76
225.514	8637.47
225.587	8659.26
225.66	8658.64
225.733	8659.7
225.806	8664.03
225.879	8654.16
225.952	8626.55
226.025	8674.19
226.097	8726.4
226.17	8720.96
226.243	8656.43
226.316	8655.56
226.389	8663.22
226.461	8683.58
226.534	8706.53
226.607	8701.05
226.68	8789.24
226.753	8786.01
226.825	8701.64
226.898	8763.29
226.971	8772.24
227.044	8788.26
227.117	8795.05
227.189	8819.75
227.262	8858.36
227.335	8880.99
227.407	8876.32
227.48	8912.89
227.553	8926.76
227.626	8905.76
227.698	8908.07
227.771	8953.05
227.844	8929.47
227.916	8944.2
227.989	8903.57
228.062	8896.06
228.134	8979.07
228.207	8976.37
228.28	8972.33
228.352	8981.14
228.425	8979.6
228.498	9021.77
228.57	9000.45
228.643	9060.69
228.716	9052.89
228.788	9040.76
228.861	9028.09
228.934	9089.27
229.006	9096.64
229.079	9097.55
229.151	9085.95
229.224	9052.94
229.296	9075.47
229.369	9177.47
229.442	9224.08
229.514	9212.34
229.587	9257.83
229.659	9185.56
229.732	9199.9
229.804	9234.56
229.877	9320.97
229.949	9355.41
230.022	9409.6
230.094	9411.09
230.167	9399.68
230.239	9359.82
230.312	9340.9
230.384	9415.22
230.457	9412.86
230.529	9416.56
230.602	9425.42
230.674	9437.27
230.747	9479.28
230.819	9510.35
230.892	9397.95
230.964	9398.67
231.037	9417.44
231.109	9409.11
231.181	9448.49
231.254	9412.86
231.326	9403.48
231.399	9369.94
231.471	9344.03
231.544	9266.53
231.616	9314.43
231.688	9320.11
231.761	9314.87
231.833	9312.07
231.905	9222.4
231.978	9220.04
232.05	9208.25
232.122	9203
232.195	9178.97
232.267	9218.5
232.339	9190.91
232.412	9249.97
232.484	9227.82
232.556	9208.28
232.629	9275.77
232.701	9288.87
232.773	9304.61
232.846	9298.73
232.918	9312.99
232.99	9328.93
233.062	9370.69
233.135	9378.3
233.207	9337.03
233.279	9374.57
233.351	9406.44
233.424	9413.76
233.496	9387.62
233.568	9474.73
233.64	9438.58
233.713	9455.62
233.785	9449.51
233.857	9464.82
233.929	9415.28
234.001	9482.01
234.074	9541.69
234.146	9472.81
234.218	9472.09
234.29	9474.3
234.362	9460.01
234.434	9412.08
234.507	9375.05
234.579	9320.5
234.651	9308.41
234.723	9351.8
234.795	9367.21
234.867	9356.76
234.939	9421.38
235.012	9443.29
235.084	9445.31
235.156	9479.93
235.228	9460.43
235.3	9445.07
235.372	9459.37
235.444	9517.96
235.516	9438
235.588	9453.12
235.66	9473.73
235.732	9451.82
235.804	9471.08
235.876	9519.42
235.948	9579.63
236.02	9598.94
236.092	9610.3
236.164	9620.6
236.236	9612.41
236.308	9615.93
236.38	9647.28
236.452	9619.39
236.524	9643.52
236.596	9708.53
236.668	9748.41
236.74	9777.59
236.812	9805.87
236.884	9831.54
236.956	9846.28
237.028	9838.63
237.1	9819.8
237.172	9887.05
237.244	9961.81
237.316	10015.19
237.388	9992.03
237.46	9972.61
237.532	10032.48
237.604	10026.37
237.675	10102.44
237.747	10154.33
237.819	10144.6
237.891	10150.09
237.963	10144.99
238.035	10139.98
238.107	10020.92
238.178	10083.23
238.25	10084.1
238.322	10173.29
238.394	10132.73
238.466	10135.33
238.538	10183.35
238.609	10227.95
238.681	10169.32
238.753	10148.02
238.825	10162.33
238.897	10195.37
238.968	10274.4
239.04	10255.61
239.112	10375.12
239.184	10327.95
239.255	10325.83
239.327	10358.82
239.399	10376.69
239.471	10423.13
239.542	10456.52
239.614	10526.37
239.686	10435.93
239.758	10492.92
239.829	10461.06
239.901	10528.32
239.973	10545.85
240.044	10574.71
240.116	10587.67
240.188	10607.09
240.259	10616.72
240.331	10614.26
240.403	10651.36
240.474	10603.02
240.546	10591.12
240.618	10530.7
240.689	10534.31
240.761	10545.2
240.833	10610.59
240.904	10610.68
240.976	10607.12
241.048	10624.18
241.119	10667.79
241.191	10718.62
241.262	10780.07
241.334	10781.66
241.405	10782.57
241.477	10779.44
241.549	10785.9
241.62	10807.15
241.692	10852.93
241.763	10919.96
241.835	10939.58
241.906	10955.87
241.978	10923.54
242.049	10995.23
242.121	11051.23
242.192	11119.85
242.264	11088.33
242.335	11045.88
242.407	11092.33
242.478	11101.63
242.55	11121.53
242.621	11102.26
242.693	11093.77
242.764	11080.47
242.836	11082.5
242.907	11117.39
242.979	11152.76
243.05	11173.09
243.122	11201.77
243.193	11195.89
243.264	11124.95
243.336	11127.26
243.407	11168.42
243.479	11258.06
243.55	11274.59
243.622	11288.76
243.693	11287.79
243.764	11352.27
243.836	11325.73
243.907	11310.88
243.978	11312.52
244.05	11338.26
244.121	11292.48
244.192	11346.99
244.264	11303.85
244.335	11321.97
244.407	11264.67
244.478	11284.05
244.549	11276.29
244.62	11229.59
244.692	11231.52
244.763	11273.49
244.834	11265.59
244.906	11237.68
244.977	11257.49
245.048	11305.74
245.119	11287.57
245.191	11259.67
245.262	11198.76
245.333	11283.08
245.405	11305.64
245.476	11336.82
245.547	11354.6
245.618	11408.43
245.689	11422.94
245.761	11458.12
245.832	11462.22
245.903	11518.99
245.974	11544.34
246.045	11561.98
246.117	11649.55
246.188	11631.68
246.259	11615.43
246.33	11628.78
246.401	11644.25
246.473	11601.65
246.544	11587.86
246.615	11642.85
246.686	11648.25
246.757	11727.24
246.828	11700.44
246.899	11768.94
246.97	11739.59
247.042	11726.24
247.113	11767.31
247.184	11851.33
247.255	11847.62
247.326	11873.55
247.397	11876.92
247.468	11888.64
247.539	11901.41
247.61	11849.59
247.681	11898.37
247.752	11956.11
247.823	11936.11
247.894	11948.83
247.965	11926.52
248.037	11913.16
248.108	11857.16
248.179	11868.87
248.25	11856.62
248.321	11884.24
248.392	11837.68
248.463	11913.58
248.534	11916.28
248.605	11941.16
248.675	11916.52
248.746	11936.33
248.817	11947.42
248.888	11968.2
248.959	11905.1
249.03	11937.69
249.101	11955.09
249.172	11941.64
249.243	11859.37
249.314	11923.91
249.385	11931.43
249.456	11958.85
249.527	11956.15
249.598	11988.98
249.669	11992.35
249.739	12004.98
249.81	12016.02
249.881	11971.58
249.952	11971.63
250.023	11968.06
250.094	11919.61
250.165	11874.11
250.235	11866.16
250.306	11869.77
250.377	11837.43
250.448	11867.65
250.519	11796.17
250.59	11842.3
250.66	11836.51
250.731	11914.98
250.802	11911.41
250.873	11927.41
250.944	11949.25
251.014	11935.85
251.085	12027.58
251.156	12055.54
251.227	12109.19
251.297	12166.6
251.368	12231.09
251.439	12279.1
251.51	12331.5
251.58	12310.34
251.651	12317.48
251.722	12381.01
251.792	12331.31
251.863	12338.69
251.934	12398.7
252.005	12517.76
252.075	12532.36
252.146	12583.07
252.217	12630.46
252.287	12671.38
252.358	12686.9
252.429	12758.68
252.499	12758.83
252.57	12760.61
252.641	12805.1
252.711	12813.01
252.782	12763.7
252.852	12831.23
252.923	12819.61
252.994	12827.52
253.064	12879.87
253.135	12856.87
253.205	12831.76
253.276	12913.17
253.347	12973.48
253.417	12955.83
253.488	12932.89
253.558	12918.43
253.629	12910.47
253.699	12929.8
253.77	12948.36
253.841	12940.55
253.911	12949.42
253.982	12961.09
254.052	12995.89
254.123	13000.66
254.193	13003.12
254.264	13143.02
254.334	13102.52
254.405	13074.66
254.475	13043.95
254.546	13050.17
254.616	13114.48
254.687	13141.09
254.757	13159.5
254.827	13160.08
254.898	13180.86
254.968	13189.44
255.039	13174.2
255.109	13217.15
255.18	13183.55
255.25	13123.49
255.321	13146.58
255.391	13103.19
255.461	13189.77
255.532	13103
255.602	13096.35
255.673	13042.6
255.743	13005.63
255.813	12943.4
255.884	12994.45
255.954	13030.07
256.024	13095.49
256.095	13099.54
256.165	13061.93
256.235	13084.93
256.306	13072.2
256.376	13124.12
256.446	13165.77
256.517	13203.28
256.587	13251.34
256.657	13272.93
256.728	13296.22
256.798	13314.25
256.868	13307.55
256.938	13280.55
257.009	13327.7
257.079	13360.24
257.149	13458.53
257.219	13397.3
257.29	13430.66
257.36	13372.04
257.43	13412.49
257.5	13339.41
257.571	13329.77
257.641	13369.78
257.711	13328.61
257.781	13352.81
257.852	13358.4
257.922	13293.75
257.992	13295.15
258.062	13287.3
258.132	13323.88
258.202	13325.96
258.273	13341.19
258.343	13417.79
258.413	13406.03
258.483	13407.33
258.553	13376.96
258.623	13352.61
258.693	13381.39
258.764	13450.96
258.834	13521.77
258.904	13537.39
258.974	13532.66
259.044	13539.65
259.114	13570.51
259.184	13600.11
259.254	13608.83
259.324	13554.5
259.394	13601.74
259.464	13679.12
259.535	13685.19
259.605	13685.48
259.675	13679.6
259.745	13705.15
259.815	13686.83
259.885	13681.96
259.955	13801.21
260.025	13797.26
260.095	13803.72
260.165	13831.15
260.235	13890.83
260.305	13873.62
260.375	13842.96
260.445	13938.6
260.515	14005.41
260.585	14050.1
260.655	14060.17
260.725	14110.89
260.795	14153.12
260.865	14221.9
260.934	14191.44
261.004	14219.3
261.074	14225.91
261.144	14287.8
261.214	14324.97
261.284	14323.38
261.354	14366.67
261.424	14318.61
261.494	14390.05
261.564	14394.63
261.634	14425.29
261.703	14355.25
261.773	14381.33
261.843	14413.96
261.913	14401.24
261.983	14347.59
262.053	14370.05
262.123	14367.44
262.192	14326.13
262.262	14372.75
262.332	14323.24
262.402	14358.67
262.472	14369.66
262.541	14306.61
262.611	14354.19
262.681	14329.99
262.751	14370.33
262.821	14379.01
262.89	14341.8
262.96	14367.3
263.03	14452.91
263.1	14470.02
263.169	14500.15
263.239	14530.47
263.309	14591.78
263.379	14625.58
263.448	14639.8
263.518	14661.15
263.588	14674.07
263.657	14748.11
263.727	14787.93
263.797	14805.33
263.867	14801.14
263.936	14759.92
264.006	14819.07
264.076	14810.63
264.145	14810.59
264.215	14796.85
264.285	14834.74
264.354	14798.2
264.424	14773.18
264.494	14715.43
264.563	14703.24
264.633	14773.76
264.702	14796.41
264.772	14746.52
264.842	14743.87
264.911	14780.51
264.981	14744.21
265.05	14765.13
265.12	14751.4
265.19	14756.94
265.259	14797.19
265.329	14836.91
265.398	14862.46
265.468	14964.89
265.537	14959.49
265.607	14993.13
265.676	15040.32
265.746	15061.63
265.815	15128.2
265.885	15146.42
265.955	15135.14
266.024	15143.1
266.094	15082.79
266.163	15147.77
266.232	15212.89
266.302	15223.35
266.371	15256.22
266.441	15272.08
266.51	15318.26
266.58	15324.53
266.649	15311.13
266.719	15367.86
266.788	15387.62
266.858	15460.26
266.927	15387.19
266.996	15414.71
267.066	15443.05
267.135	15414.28
267.205	15458.23
267.274	15477.18
267.343	15527.02
267.413	15549.77
267.482	15612.43
267.552	15676.3
267.621	15620.43
267.69	15578.79
267.76	15601.3
267.829	15622.27
267.898	15648.49
267.968	15630.17
268.037	15684.49
268.106	15740.11
268.176	15701.84
268.245	15716.01
268.314	15711.82
268.384	15772.36
268.453	15794.97
268.522	15821.43
268.592	15882.84
268.661	15865.1
268.73	15889.25
268.799	15882.5
268.869	15966.47
268.938	15918.12
269.007	15911.04
269.076	15941.26
269.146	16005.46
269.215	16032.45
269.284	16103.16
269.353	16098.62
269.422	16110.87
269.492	16097.23
269.561	16010.08
269.63	16056.45
269.699	16052.88
269.768	16076.79
269.838	16108.31
269.907	16149.42
269.976	16126.72
270.045	16071.72
270.114	16115.97
270.183	16130.09
270.253	16163.93
270.322	16115.92
270.391	16133.42
270.46	16203.74
270.529	16249.57
270.598	16280.95
270.667	16293.96
270.736	16263.41
270.806	16295.94
270.875	16352.23
270.944	16368.43
271.013	16499.96
271.082	16521.07
271.151	16554.76
271.22	16512.44
271.289	16515.14
271.358	16522.18
271.427	16552.49
271.496	16576.54
271.565	16565.51
271.634	16582.04
271.703	16708.16
271.772	16763.49
271.841	16795.11
271.91	16766.24
271.979	16790.67
272.048	16763.01
272.117	16816.41
272.186	16820.12
272.255	16871.21
272.324	16914.68
272.393	16950.1
272.462	16942.44
272.531	16954.2
272.6	16973.04
272.669	17042.98
272.738	17048.57
272.807	17087.31
272.876	17074.59
272.945	17225.25
273.013	17286.6
273.082	17349.15
273.151	17253.78
273.22	17301.39
273.289	17324.77
273.358	17402.84
273.427	17405.59
273.496	17466.65
273.564	17500.38
273.633	17559.18
273.702	17549.3
273.771	17562.12
273.84	17588.38
273.909	17630.07
273.977	17674.41
274.046	17687.08
274.115	17744.53
274.184	17750.21
274.253	17763.9
274.322	17841.01
274.39	17785.49
274.459	17787.32
274.528	17741.54
274.597	17764.19
274.665	17788.77
274.734	17859.18
274.803	17864.53
274.872	17883.27
274.94	17873.25
275.009	18013.68
275.078	18005.58
275.147	18031.42
275.215	18060.38
275.284	18131.89
275.353	18139.75
275.421	18108.95
275.49	18202.11
275.559	18218.83
275.627	18248.08
275.696	18268.61
275.765	18309.67
275.833	18322.82
275.902	18361.14
275.971	18440.02
276.039	18526.24
276.108	18579.15
276.177	18617.89
276.245	18637.12
276.314	18682.32
276.383	18742.08
276.451	18654.03
276.52	18711.91
276.588	18801.98
276.657	18851.71
276.725	18857.83
276.794	18903.47
276.863	18988.42
276.931	18962.35
277	19028.76
277.068	19093.91
277.137	19199.88
277.205	19226.39
277.274	19331.4
277.342	19396.36
277.411	19388.74
277.48	19391.34
277.548	19401.8
277.617	19435.92
277.685	19462.38
277.754	19514.81
277.822	19542.81
277.89	19634.95
277.959	19658.42
278.027	19636.97
278.096	19649.17
278.164	19772.73
278.233	19794.76
278.301	19801.65
278.37	19849.21
278.438	19845.45
278.507	19905.5
278.575	19851.48
278.643	19890.56
278.712	19873.84
278.78	19884
278.849	19961.4
278.917	20043.13
278.985	20073.93
279.054	20126.84
279.122	20203.28
279.191	20233.4
279.259	20260.82
279.327	20225.3
279.396	20326.02
279.464	20359.61
279.532	20428.87
279.601	20460.58
279.669	20483.14
279.737	20572.92
279.806	20636.88
279.874	20703.53
279.942	20735.43
280.011	20784.97
280.079	20855.29
280.147	20945.32
280.215	21010.82
280.284	21035.15
280.352	21043.44
280.42	21114.44
280.488	21133.96
280.557	21154.97
280.625	21212.57
280.693	21262.16
280.761	21321.88
280.83	21297.44
280.898	21381.78
280.966	21363.13
281.034	21298.01
281.102	21301.09
281.171	21320.66
281.239	21382.17
281.307	21404.68
281.375	21418.13
281.443	21536.76
281.512	21566.93
281.58	21641.12
281.648	21636.3
281.716	21678.72
281.784	21711.54
281.852	21721.14
281.92	21750.39
281.989	21825.5
282.057	21817.21
282.125	21995.38
282.193	22032.69
282.261	22088.65
282.329	22118.73
282.397	22183.8
282.465	22251.91
282.533	22351.64
282.601	22359.5
282.67	22328.21
282.738	22350.05
282.806	22425.92
282.874	22423.56
282.942	22477.94
283.01	22496.17
283.078	22555.13
283.146	22593.84
283.214	22669.05
283.282	22728.73
283.35	22825.46
283.418	22856.13
283.486	22923.43
283.554	22832.37
283.622	22874.46
283.69	22914.86
283.758	22949.05
283.826	23009.9
283.894	23085.65
283.962	23197.11
284.03	23299.38
284.098	23371.46
284.165	23398.8
284.233	23444.75
284.301	23481.25
284.369	23501.75
284.437	23512.31
284.505	23541.43
284.573	23637.45
284.641	23637.93
284.709	23711.29
284.777	23692.67
284.845	23755.28
284.912	23816.63
284.98	23878.41
285.048	23914.19
285.116	23980.36
285.184	24066.94
285.252	24101.38
285.319	24096.65
285.387	24099.65
285.455	24085.51
285.523	24139.73
285.591	24178.89
285.659	24228.91
285.726	24306.72
285.794	24307.4
285.862	24355.97
285.93	24396.1
285.997	24430.74
286.065	24474
286.133	24501.27
286.201	24546.8
286.269	24550.66
286.336	24559.73
286.404	24586.79
286.472	24657.19
286.539	24635.05
286.607	24625.69
286.675	24676.54
286.743	24743.07
286.81	24778.49
286.878	24866.4
286.946	24883.14
287.013	24936.88
287.081	24977.17
287.149	24975.1
287.216	25088.88
287.284	25128.49
287.352	25191.41
287.419	25226.36
287.487	25325.15
287.555	25371.39
287.622	25403.77
287.69	25459.32
287.758	25553.91
287.825	25590.68
287.893	25599.57
287.96	25672.42
288.028	25752.49
288.096	25818.53
288.163	25874.48
288.231	25880.08
288.298	25928.79
288.366	26027.33
288.433	26063.28
288.501	26092.53
288.569	26144.8
288.636	26167.64
288.704	26254.27
288.771	26322.39
288.839	26334.56
288.906	26346
288.974	26415.75
289.041	26453.35
289.109	26464.21
289.176	26534.93
289.244	26595.66
289.311	26682.92
289.379	26749.7
289.446	26801.57
289.514	26839.24
289.581	26875.85
289.649	26933.75
289.716	26981.71
289.783	27007.17
289.851	27121.63
289.918	27153.3
289.986	27230.49
290.053	27287.01
290.121	27319.38
290.188	27372.67
290.255	27519.06
290.323	27559.11
290.39	27584.24
290.458	27662.04
290.525	27761.08
290.592	27775.58
290.66	27832.68
290.727	27872.01
290.794	27974.66
290.862	28035.12
290.929	28093.84
290.996	28152.7
291.064	28229.43
291.131	28321.52
291.198	28393.3
291.266	28432.36
291.333	28494.25
291.4	28555.79
291.468	28643
291.535	28680.42
291.602	28726.53
291.669	28744.81
291.737	28810.6
291.804	28859.57
291.871	28953.22
291.938	29022.46
292.006	29171.21
292.073	29249.25
292.14	29317.82
292.207	29322.12
292.275	29352.88
292.342	29434.28
292.409	29563.2
292.476	29683.66
292.543	29689.37
292.611	29736.19
292.678	29827.19
292.745	29953.33
292.812	30030.5
292.879	30078.06
292.946	30129.32
293.014	30221.54
293.081	30282.51
293.148	30363.44
293.215	30456.2
293.282	30489.39
293.349	30558.41
293.416	30531.1
293.484	30623.15
293.551	30699.24
293.618	30801.92
293.685	30936.2
293.752	30940.65
293.819	30975.9
293.886	30979.05
293.953	31047.91
294.02	31129.24
294.087	31198.96
294.154	31223.12
294.221	31315.38
294.288	31366.99
294.356	31476.83
294.423	31537.22
294.49	31572.95
294.557	31655.85
294.624	31673.48
294.691	31784.03
294.758	31840.74
294.825	31914.1
294.892	31937.79
294.959	31989.52
295.026	32069.06
295.093	32084.75
295.16	32143.91
295.226	32187.66
295.293	32310.33
295.36	32368.16
295.427	32454.75
295.494	32543.68
295.561	32621.96
295.628	32755.74
295.695	32851.34
295.762	32902.56
295.829	32984.52
295.896	33089.46
295.963	33172.34
296.03	33262.71
296.096	33320
296.163	33408.99
296.23	33514.66
296.297	33599.22
296.364	33648.75
296.431	33722.78
296.498	33782.35
296.564	33912.09
296.631	33979.52
296.698	34001.53
296.765	34127.09
296.832	34149.88
296.899	34166.85
296.965	34281.09
297.032	34252.13
297.099	34376.31
297.166	34472.32
297.233	34512.38
297.299	34529.25
297.366	34587.6
297.433	34646.37
297.5	34739.12
297.566	34782.92
297.633	34835.6
297.7	34899.23
297.767	34955.33
297.833	35013.54
297.9	35068
297.967	35063.98
298.033	35150.23
298.1	35289.2
298.167	35316.03
298.234	35378.21
298.3	35448.41
298.367	35474.75
298.434	35561.81
298.5	35557.05
298.567	35592.67
298.634	35636.19
298.7	35753.93
298.767	35800.22
298.834	35890.48
298.9	35913.72
298.967	35945.46
299.033	36019.47
299.1	36120.23
299.167	36213.29
299.233	36263.38
299.3	36357.19
299.366	36478.15
299.433	36578.69
299.5	36543.26
299.566	36597.56
299.633	36706.87
299.699	36794.73
299.766	36847.49
299.832	36901.19
299.899	36983.29
299.965	37067.32
300.032	37109.49
300.099	37173.29
300.165	37249.07
300.232	37296.6
300.298	37342.82
300.365	37441.41
300.431	37490.9
300.498	37512.5
300.564	37572.46
300.631	37642.29
300.697	37742.23
300.763	37775.2
300.83	37803.61
300.896	37893.68
300.963	37985.31
301.029	38050.14
301.096	38112.75
301.162	38196.13
301.229	38222.35
301.295	38228.67
301.361	38280.78
301.428	38350.45
301.494	38356.43
301.561	38420.35
301.627	38475.62
301.693	38546.33
301.76	38611.12
301.826	38649.59
301.892	38739.79
301.959	38818.43
302.025	38864.38
302.092	38887.51
302.158	38965.95
302.224	39031.24
302.291	39059.9
302.357	39078.51
302.423	39103.33
302.49	39114.41
302.556	39187.29
302.622	39246.21
302.688	39350.71
302.755	39449.49
302.821	39522.35
302.887	39603.09
302.954	39643.61
303.02	39722.71
303.086	39790.24
303.152	39817.01
303.219	39848.88
303.285	39906.61
303.351	39970.56
303.417	40009.92
303.483	40022.74
303.55	40048.15
303.616	40092.62
303.682	40136.3
303.748	40173.17
303.815	40264.68
303.881	40352.01
303.947	40366.54
304.013	40413.62
304.079	40415.37
304.145	40384.41
304.212	40417.46
304.278	40439.03
304.344	40464.74
304.41	40475.24
304.476	40483.5
304.542	40513.04
304.608	40580.54
304.674	40573.93
304.741	40600.76
304.807	40660.69
304.873	40725.52
304.939	40826.03
305.005	40801.14
305.071	40841.43
305.137	40897.27
305.203	40864.89
305.269	40910.44
305.335	40985.74
305.401	41028.46
305.467	41067.34
305.533	41157.95
305.599	41237.32
305.666	41308.38
305.732	41361.17
305.798	41433.99
305.864	41561.89
305.93	41628.04
305.996	41674.57
306.062	41717.24
306.128	41753.95
306.194	41754.58
306.259	41795.95
306.325	41803.53
306.391	41879.36
306.457	41948.73
306.523	41996.12
306.589	42112.13
306.655	42109.11
306.721	42095.55
306.787	42097.59
306.853	42191.72
306.919	42166.44
306.985	42170.04
307.051	42182.43
307.117	42201.1
307.183	42220.84
307.248	42166.77
307.314	42216.03
307.38	42255.56
307.446	42329.56
307.512	42330.73
307.578	42401.62
307.644	42416.93
307.709	42463.96
307.775	42497.21
307.841	42522.5
307.907	42569.86
307.973	42544.38
308.039	42587.26
308.104	42649.79
308.17	42697.34
308.236	42686.55
308.302	42735.65
308.368	42749.41
308.433	42805.67
308.499	42832.85
308.565	42835.72
308.631	42901.95
308.696	42872.39
308.762	42872.05
308.828	42890.92
308.894	42875.85
308.959	42842.78
309.025	42862.09
309.091	42882.66
309.156	42903.28
309.222	42950.75
309.288	42932.07
309.354	42901.2
309.419	42938.55
309.485	42926.54
309.551	42974.54
309.616	42979.35
309.682	43026.48
309.748	43050.5
309.813	43060.28
309.879	43065.19
309.945	43071.9
310.01	43082.65
310.076	43129.68
310.141	43155.94
310.207	43138.28
310.273	43188.85
310.338	43249.74
310.404	43243.66
310.469	43232.08
310.535	43236.46
310.601	43196.34
310.666	43276.69
310.732	43351.34
310.797	43344.09
310.863	43351.92
310.928	43368.36
310.994	43408.83
311.059	43416.12
311.125	43441.85
311.191	43512.69
311.256	43519.88
311.322	43572.75
311.387	43549.21
311.453	44458.23
311.518	44463.39
311.584	44497.49
311.649	44551.24
311.715	44558.82
311.78	44601.72
311.846	44617.72
311.911	44671.04
311.976	44726.29
312.042	44705.76
312.107	44687.52
312.173	44709.22
312.238	44727.07
312.304	44740.64
312.369	44742.39
312.434	44745.46
312.5	44762.77
312.565	44703.61
312.631	44762.42
312.696	44763.59
312.761	44804.64
312.827	43933.47
312.892	44046.17
312.958	44076.53
313.023	44099.4
313.088	44114.38
313.154	44094.93
313.219	44112.05
313.284	44113.56
313.35	44121.34
313.415	44117.6
313.48	44165.56
313.546	44214.51
313.611	44278.73
313.676	44285.3
313.741	44286.76
313.807	44342.82
313.872	44386.6
313.937	44438.13
314.003	44500.81
314.068	44550.93
314.133	44602.99
314.198	44609.22
314.264	44571.68
314.329	44578.5
314.394	44605.12
314.459	44626.87
314.525	44727.58
314.59	44747.86
314.655	44742.95
314.72	44799.94
314.785	44837.54
314.851	44832.82
314.916	44799.39
314.981	44783.48
315.046	44795.6
315.111	44804.84
315.176	44801.48
315.242	44847.14
315.307	44863.34
315.372	44830.39
315.437	44820.81
315.502	44830.25
315.567	44897.51
315.632	44870.89
315.698	44910.8
315.763	44921.75
315.828	44935.67
315.893	44935.32
315.958	44954.79
316.023	44950.31
316.088	44906.32
316.153	44857.04
316.218	44858.64
316.283	44812.33
316.348	44769.13
316.413	44772.68
316.479	44740.28
316.544	44634.43
316.609	44517.79
316.674	44393.7
316.739	44265.73
316.804	44156.33
316.869	44023.57
316.934	43887.39
316.999	43777.27
317.064	43585.76
317.129	43420.71
317.194	43264.79
317.259	43092.36
317.324	42874.86
317.389	42698.83
317.454	42532.43
317.518	42400.33
317.583	42273.45
317.648	42163.32
317.713	42002.74
317.778	41762.89
317.843	41617.43
317.908	41454.84
317.973	41291.12
318.038	41159.79
318.103	40998.01
318.168	40846.42
318.233	40689.53
318.297	40471.13
318.362	40292.4
318.427	40107.92
318.492	39961.64
318.557	39747.22
318.622	39601.88
318.687	39478.74
318.751	39290.81
318.816	39122.78
318.881	38946.21
318.946	38697.21
319.011	38472.08
319.075	38272.34
319.14	38085.39
319.205	37865.79
319.27	37680.36
319.335	37459.16
319.399	37252.08
319.464	37087.65
319.529	36831.08
319.594	36627.68
319.658	36452.66
319.723	36242.85
319.788	36064.72
319.853	35808.1
319.917	35639.33
319.982	35375.8
320.047	35156.47
320.112	34984.19
320.176	34732.22
320.241	34514.55
320.306	34332.02
320.37	34117.08
320.435	33930.65
320.5	33741.38
320.564	33520.01
320.629	33285.75
320.694	33082.99
320.758	32846.97
320.823	32598.21
320.888	32432.25
320.952	32173.93
321.017	31935.09
321.082	31704.44
321.146	31500.7
321.211	31284.04
321.275	31050.09
321.34	30807.34
321.405	30576.83
321.469	30329.54
321.534	30099.28
321.598	29840.53
321.663	29639.03
321.727	29429.4
321.792	29166.2
321.857	28928.84
321.921	28708.95
321.986	28475.32
322.05	28192.43
322.115	27981.47
322.179	27742.02
322.244	27434.1
322.308	27233.33
322.373	26981.4
322.437	26741.14
322.502	26544.21
322.566	26300.31
322.631	26073.16
322.695	25840.51
322.76	25587.88
322.824	25361.23
322.889	25117.47
322.953	24869.88
323.018	24547.91
323.082	24229.49
323.146	23945.69
323.211	23665.15
323.275	23400.88
323.34	23138.46
323.404	22911.81
323.468	22650.1
323.533	22392.39
323.597	22147.81
323.662	21854
323.726	21620.35
323.79	21359.41
323.855	21018.08
323.919	20737.21
323.983	20482.18
324.048	20091.54
324.112	20226.9
324.177	19425.59
324.241	18364.79
324.305	17321.83
324.37	16294.26
324.434	15306.74
324.498	15036.07
324.562	14722.1
324.627	14372.29
324.691	14028.89
324.755	13639.97
324.82	13185.9
324.884	12719.95
324.948	12242.26
325.012	11668.18
325.077	10963.95
