Data from 20250701_urea_2M_exp3_MAYP1162681_08-49-51-917.txt Node
Date: Wed Jul 02 08:49:51 BST 2025
User: adleo
Spectrometer: MAYP116268
Trigger mode: 0
Integration Time (sec): 4.000000E0
Scans to average: 1
Electric dark correction enabled: true
Nonlinearity correction enabled: true
Boxcar width: 10
XAxis mode: Wavelengths
Number of Pixels in Spectrum: 2068
>>>>>Begin Spectral Data<<<<<
179.565	3823.14
179.642	4017.39
179.718	4170.59
179.795	4304.34
179.871	4422.82
179.948	4486.08
180.024	4560.55
180.101	4642.42
180.177	4698.6
180.254	4777.77
180.33	4859.05
180.407	5138.54
180.483	5434.46
180.56	5734.12
180.636	6008.61
180.712	5967.9
180.789	6002.98
180.865	6044.79
180.942	6077.12
181.018	6111.91
181.095	6160.46
181.171	6180.66
181.248	6187.14
181.324	6241.93
181.4	6273.61
181.477	6310.63
181.553	6356.92
181.63	6428.45
181.706	6489.01
181.782	6518.08
181.859	6519.43
181.935	6537.05
182.011	6522.65
182.088	6581.09
182.164	6650.23
182.24	6696.02
182.317	6729.57
182.393	6718.48
182.469	6771.41
182.546	6817.66
182.622	6832.98
182.698	6815.49
182.775	6857.66
182.851	6903.48
182.927	6875.67
183.003	6858.77
183.08	6840.18
183.156	6872.79
183.232	6864.34
183.308	6820.96
183.385	6839.45
183.461	6900.31
183.537	6904.59
183.613	6948.69
183.69	6918.81
183.766	6878.72
183.842	6906.3
183.918	6922.05
183.995	6971.09
184.071	6977.63
184.147	6963.65
184.223	6933.55
184.299	6975.21
184.375	6932.94
184.452	6958.66
184.528	7088.85
184.604	7128.91
184.68	7166.95
184.756	7189.64
184.832	7204.83
184.908	7224.61
184.985	7227.01
185.061	7171.14
185.137	7198.82
185.213	7157.36
185.289	7165
185.365	7144.3
185.441	7138.29
185.517	7189.16
185.593	7174.98
185.669	7167.29
185.745	7197.19
185.822	7250.64
185.898	7224.1
185.974	7260.27
186.05	7231.76
186.126	7158.42
186.202	7129.84
186.278	7115.57
186.354	7085.15
186.43	7107.12
186.506	7098.96
186.582	7099.53
186.658	7124.46
186.734	7061.87
186.81	7070.08
186.886	7081.22
186.962	7122.1
187.038	7114.27
187.114	7081.72
187.19	7111.52
187.266	7077.31
187.341	7078.71
187.417	7053.87
187.493	7055.31
187.569	7064.78
187.645	7050.22
187.721	7010.04
187.797	7037.66
187.873	7055.25
187.949	7035.89
188.025	7017.62
188.101	7024.68
188.176	7042.22
188.252	7028.24
188.328	7052.2
188.404	7051.24
188.48	7031.93
188.556	7010.49
188.632	7011.12
188.707	7012.8
188.783	7003.09
188.859	6986.82
188.935	6945.92
189.011	6972.25
189.086	6942.66
189.162	6914.99
189.238	6900.53
189.314	6888.71
189.39	6864.89
189.465	6843.6
189.541	6901.5
189.617	6842.76
189.693	6826.09
189.768	6844.69
189.844	6922.23
189.92	6895.54
189.996	6928.64
190.071	6963.72
190.147	6959.34
190.223	6983.37
190.298	6961.22
190.374	6912.17
190.45	6954.52
190.526	6985.85
190.601	6966.39
190.677	6971.91
190.753	7068.56
190.828	7080.47
190.904	7139.3
190.98	7192.02
191.055	7228.84
191.131	7199.47
191.207	7272.68
191.282	7303.95
191.358	7258.11
191.433	7208.39
191.509	7251.8
191.585	7237.58
191.66	7240.41
191.736	7268.86
191.811	7238.68
191.887	7288.15
191.963	7371.63
192.038	7393.07
192.114	7395.76
192.189	7407.87
192.265	7402.15
192.34	7326.11
192.416	7325.05
192.491	7309.52
192.567	7321.31
192.642	7323.23
192.718	7321.36
192.793	7279.83
192.869	7269.02
192.944	7288.85
193.02	7316.16
193.095	7327.31
193.171	7351.87
193.246	7350.24
193.322	7338.6
193.397	7346.72
193.473	7301.34
193.548	7237.35
193.624	7254.37
193.699	7245.77
193.775	7303.09
193.85	7308.08
193.925	7333.8
194.001	7329.43
194.076	7298.77
194.152	7266.26
194.227	7242.27
194.302	7210.33
194.378	7223.79
194.453	7209.72
194.529	7248.89
194.604	7200.16
194.679	7179.54
194.755	7113.11
194.83	7158.03
194.905	7150.2
194.981	7177.79
195.056	7151.66
195.131	7173.57
195.207	7162.02
195.282	7132.48
195.357	7062.09
195.433	7112.4
195.508	7076.45
195.583	7105.81
195.659	7152.24
195.734	7172.29
195.809	7170.22
195.884	7202.12
195.96	7206.97
196.035	7262.42
196.11	7246.27
196.185	7284.91
196.261	7301.19
196.336	7412.31
196.411	7361.72
196.486	7382.05
196.561	7358.64
196.637	7390.11
196.712	7445.22
196.787	7462.68
196.862	7517.7
196.937	7558.31
197.013	7580.92
197.088	7610.67
197.163	7677.63
197.238	7740.76
197.313	7739.32
197.388	7784.71
197.464	7890.54
197.539	7919.15
197.614	7899.2
197.689	7940.37
197.764	7995.74
197.839	8063.26
197.914	8036.18
197.989	8109.05
198.065	8155.94
198.14	8333.47
198.215	8429.01
198.29	8468.24
198.365	8508.71
198.44	8546.23
198.515	8637.43
198.59	8688.45
198.665	8784.21
198.74	8816.57
198.815	8823.98
198.89	8902.57
198.965	9007.09
199.04	8990.77
199.115	9050.1
199.19	9196.66
199.265	9204.84
199.34	9239.6
199.415	9353.51
199.49	9429.27
199.565	9463.64
199.64	9545.11
199.715	9529.12
199.79	9550.06
199.865	9570.29
199.94	9568.46
200.015	9673.16
200.09	9693.63
200.165	9714.48
200.24	9733.65
200.315	9864.62
200.39	9913.65
200.464	9935.47
200.539	9939.71
200.614	9995.43
200.689	10077.36
200.764	10098.52
200.839	10165.63
200.914	10185.57
200.989	10151.22
201.063	10200.4
201.138	10141.14
201.213	10137.68
201.288	10076.7
201.363	10093.89
201.438	10094.71
201.512	10146.57
201.587	10090.54
201.662	10101.48
201.737	10141.27
201.812	10170.46
201.886	10062.13
201.961	10092.15
202.036	10047.66
202.111	10034.7
202.186	9934.13
202.26	9876.61
202.335	9800.02
202.41	9773.39
202.485	9711.95
202.559	9642.55
202.634	9549.56
202.709	9582.62
202.784	9521.28
202.858	9518.15
202.933	9453.67
203.008	9430.94
203.082	9364.02
203.157	9353.66
203.232	9205.39
203.306	9131.17
203.381	9017.58
203.456	8942.47
203.53	8862.7
203.605	8798.66
203.68	8721.04
203.754	8696.28
203.829	8642.02
203.904	8571.38
203.978	8528.44
204.053	8546.11
204.127	8504.2
204.202	8504.15
204.277	8436.84
204.351	8412.15
204.426	8385
204.5	8357.05
204.575	8237.87
204.65	8273.68
204.724	8250.28
204.799	8276.87
204.873	8265.65
204.948	8261.75
205.022	8215.06
205.097	8180.97
205.171	8222.39
205.246	8247.7
205.32	8244.63
205.395	8241.26
205.469	8213.18
205.544	8234.65
205.618	8171.19
205.693	8210.02
205.767	8164.27
205.842	8241.69
205.916	8219.32
205.991	8186.56
206.065	8206.81
206.14	8263.05
206.214	8245.77
206.289	8219.25
206.363	8261.68
206.438	8270.73
206.512	8301.28
206.586	8367.23
206.661	8404.97
206.735	8333.47
206.81	8335.88
206.884	8386.67
206.958	8342.66
207.033	8405.95
207.107	8430.02
207.181	8538.7
207.256	8515.17
207.33	8579.69
207.405	8625.59
207.479	8694.35
207.553	8724.57
207.628	8668.01
207.702	8703.37
207.776	8683.78
207.851	8694.22
207.925	8748.77
207.999	8740.25
208.073	8725.33
208.148	8737.99
208.222	8690.05
208.296	8798.47
208.371	8852.26
208.445	8894.24
208.519	8995.87
208.593	9032.17
208.668	9022.78
208.742	9034.77
208.816	9040.5
208.89	9086.01
208.965	9076.95
209.039	9104.64
209.113	9159.14
209.187	9227.78
209.261	9217.63
209.336	9284.84
209.41	9356.25
209.484	9354.03
209.558	9424.05
209.632	9471.99
209.707	9509.27
209.781	9589.29
209.855	9646.65
209.929	9705.92
210.003	9723.55
210.077	9717.82
210.151	9876.06
210.226	9991.01
210.3	10084.7
210.374	10169.2
210.448	10177.87
210.522	10216.36
210.596	10245.94
210.67	10274.75
210.744	10430.45
210.818	10548.78
210.892	10622.02
210.966	10601.5
211.041	10655.36
211.115	10647.56
211.189	10732.4
211.263	10786.02
211.337	10802.59
211.411	10849.48
211.485	10835.89
211.559	10876.07
211.633	10886.13
211.707	10785.31
211.781	10810.18
211.855	10681.62
211.929	10651.95
212.003	10589.59
212.077	10617.88
212.151	10661.49
212.225	10696.09
212.299	10661.77
212.373	10608.96
212.447	10583.52
212.52	10683.11
212.594	10690.05
212.668	10725.32
212.742	10663.26
212.816	10644.28
212.89	10626.69
212.964	10617.15
213.038	10614.84
213.112	10653.68
213.186	10698.91
213.26	10619.69
213.333	10454.98
213.407	10465.48
213.481	10464.47
213.555	10503.03
213.629	10450.9
213.703	10387
213.777	10377.85
213.85	10308.17
213.924	10420.31
213.998	10415.39
214.072	10379.39
214.146	10323.79
214.219	10305.53
214.293	10292.48
214.367	10280.34
214.441	10297.44
214.515	10244.58
214.588	10153.3
214.662	10019.49
214.736	9931.88
214.81	9941.31
214.883	9962.25
214.957	9917.43
215.031	9859.71
215.105	9758.89
215.178	9695.56
215.252	9652.7
215.326	9537.5
215.4	9449.61
215.473	9256.94
215.547	9162.39
215.621	9090.47
215.694	9080.55
215.768	8975.73
215.842	8896.69
215.915	8825.32
215.989	8712.32
216.063	8651.6
216.136	8629.79
216.21	8602.7
216.284	8614.59
216.357	8589.13
216.431	8537.49
216.504	8527.92
216.578	8585.97
216.652	8598.47
216.725	8575.37
216.799	8581.34
216.873	8564.26
216.946	8563.87
217.02	8533.58
217.093	8502.3
217.167	8403.85
217.24	8323.71
217.314	8290.1
217.387	8253.94
217.461	8205.69
217.535	8226.81
217.608	8162.06
217.682	8128.09
217.755	8144.35
217.829	8083.72
217.902	8066.59
217.976	8049.13
218.049	7997.33
218.123	7918.64
218.196	7917.2
218.27	7880.93
218.343	7809.18
218.417	7801.2
218.49	7777.83
218.563	7817.12
218.637	7827.9
218.71	7897.74
218.784	7926.56
218.857	7963.59
218.931	7979.74
219.004	7991.33
219.077	8006.78
219.151	8029.72
219.224	8022.17
219.298	8013.99
219.371	8053.78
219.444	8012.67
219.518	8026.52
219.591	8048.59
219.665	8154.83
219.738	8171.37
219.811	8150.75
219.885	8190.49
219.958	8225.95
220.031	8229.31
220.105	8248.7
220.178	8253.08
220.251	8228.39
220.325	8248.85
220.398	8263.38
220.471	8286.85
220.544	8321.64
220.618	8295.02
220.691	8315.04
220.764	8334.95
220.838	8367.39
220.911	8358.34
220.984	8443.72
221.057	8484.29
221.131	8508.34
221.204	8410.18
221.277	8482.04
221.35	8612.84
221.424	8612.7
221.497	8624.97
221.57	8653.06
221.643	8684.31
221.716	8734.85
221.79	8740.19
221.863	8754.97
221.936	8762.53
222.009	8777.68
222.082	8807.44
222.155	8817.35
222.229	8886.82
222.302	8919.74
222.375	8925.27
222.448	8968.12
222.521	8973.51
222.594	8973.12
222.667	8944.41
222.74	8998.26
222.814	8991.71
222.887	8968.16
222.96	9027.81
223.033	9073.03
223.106	9101.37
223.179	9135.9
223.252	9147.65
223.325	9180.24
223.398	9191.17
223.471	9218.56
223.544	9238.1
223.617	9255.44
223.69	9284.03
223.763	9248.25
223.837	9272.47
223.91	9297.12
223.983	9240.71
224.056	9207.02
224.129	9228.01
224.202	9290.08
224.275	9283.2
224.348	9253.49
224.42	9222.92
224.493	9155.85
224.566	9131
224.639	9151.61
224.712	9122.32
224.785	9102.68
224.858	9095.36
224.931	9072.49
225.004	9029.6
225.077	9032.82
225.15	8938.11
225.223	8938.06
225.296	9020.43
225.369	8955.3
225.442	8924.15
225.514	8944.84
225.587	8965.39
225.66	8971.17
225.733	8969.44
225.806	8979.64
225.879	8973.87
225.952	8944.42
226.025	8990.82
226.097	9044.09
226.17	9031.53
226.243	8958.9
226.316	8957.31
226.389	8961.16
226.461	8988.46
226.534	9010.89
226.607	8990.68
226.68	9077.35
226.753	9071.72
226.825	8984.54
226.898	9047.01
226.971	9049.8
227.044	9071.85
227.117	9079.74
227.189	9097.9
227.262	9129.1
227.335	9144.37
227.407	9132.96
227.48	9162.42
227.553	9178.02
227.626	9157.78
227.698	9166.4
227.771	9210.67
227.844	9189.2
227.916	9205.38
227.989	9169.89
228.062	9172.83
228.134	9267.6
228.207	9263.02
228.28	9255.08
228.352	9270.68
228.425	9281.9
228.498	9330.92
228.57	9310.27
228.643	9367.05
228.716	9363.1
228.788	9351.06
228.861	9344.95
228.934	9416.25
229.006	9424.44
229.079	9423.52
229.151	9405.84
229.224	9368.16
229.296	9394.54
229.369	9499.16
229.442	9545.5
229.514	9527.93
229.587	9569.63
229.659	9495.27
229.732	9508.61
229.804	9549.97
229.877	9634.51
229.949	9667.22
230.022	9715.02
230.094	9717.62
230.167	9702.78
230.239	9657.95
230.312	9652.13
230.384	9727.86
230.457	9716.06
230.529	9728.82
230.602	9731.37
230.674	9747.51
230.747	9796.41
230.819	9828.34
230.892	9704.67
230.964	9706.83
231.037	9737.88
231.109	9723.77
231.181	9764.55
231.254	9739.18
231.326	9727.81
231.399	9695.62
231.471	9666.43
231.544	9589.79
231.616	9637.84
231.688	9655.33
231.761	9649.79
231.833	9637.8
231.905	9547.43
231.978	9555.04
232.05	9544.11
232.122	9553.17
232.195	9522.39
232.267	9557.02
232.339	9536.26
232.412	9606.7
232.484	9581.02
232.556	9549.74
232.629	9625.18
232.701	9644.69
232.773	9652.01
232.846	9639.78
232.918	9650.86
232.99	9662.32
233.062	9708.08
233.135	9713.96
233.207	9672.72
233.279	9712.73
233.351	9747.31
233.424	9752.36
233.496	9724.77
233.568	9811.09
233.64	9766.73
233.713	9783.16
233.785	9776.08
233.857	9788.07
233.929	9735.34
234.001	9804.05
234.074	9867.36
234.146	9794.13
234.218	9792.59
234.29	9788.79
234.362	9771.46
234.434	9718.03
234.507	9683.6
234.579	9623.54
234.651	9613.67
234.723	9649.89
234.795	9675.13
234.867	9662.03
234.939	9723.68
235.012	9741.02
235.084	9742.37
235.156	9778.91
235.228	9758.93
235.3	9745.06
235.372	9754.45
235.444	9814.93
235.516	9733.7
235.588	9748.44
235.66	9768.57
235.732	9733.17
235.804	9934.75
235.876	9977.17
235.948	10047.02
236.02	10065.56
236.092	10082.13
236.164	10094.55
236.236	10092.43
236.308	10086.85
236.38	10119.55
236.452	10094.12
236.524	10115.36
236.596	10180.86
236.668	10222.58
236.74	10248.87
236.812	10280.38
236.884	10314.25
236.956	10328.27
237.028	10321.91
237.1	10302.83
237.172	10370.2
237.244	10459.27
237.316	10338.05
237.388	10329.09
237.46	10304.95
237.532	10362.04
237.604	10354.33
237.675	10428.15
237.747	10473.92
237.819	10465.98
237.891	10468.43
237.963	10451.19
238.035	10446.71
238.107	10330.38
238.178	10396.31
238.25	10405.03
238.322	10499.92
238.394	10451.07
238.466	10453.09
238.538	10504.97
238.609	10545.63
238.681	10492.19
238.753	10465.79
238.825	10485.3
238.897	10514.4
238.968	10599.8
239.04	10591.75
239.112	10708.77
239.184	10668.78
239.255	10660.39
239.327	10695.51
239.399	10722.97
239.471	10779.53
239.542	10811.91
239.614	10882.35
239.686	10791.27
239.758	10851.89
239.829	10812.51
239.901	10887.96
239.973	10903.14
240.044	10929.16
240.116	10942.17
240.188	10956.82
240.259	10973.54
240.331	10970.26
240.403	11006.98
240.474	10953.38
240.546	10936.03
240.618	10873.68
240.689	10872.57
240.761	10892.66
240.833	10958.45
240.904	10955.89
240.976	10959.51
241.048	10983.31
241.119	11020.71
241.191	11074.49
241.262	11133.53
241.334	11135.32
241.405	11135.56
241.477	11137.63
241.549	11147.85
241.62	11175.85
241.692	11227.65
241.763	11296.24
241.835	11312.05
241.906	11329.3
241.978	11304.96
242.049	11372.82
242.121	11440.09
242.192	11512.48
242.264	11482.74
242.335	11435.61
242.407	11479.51
242.478	11481.25
242.55	11504.62
242.621	11483.99
242.693	11480.67
242.764	11474.11
242.836	11482.69
242.907	11525.45
242.979	11561.49
243.05	11587.47
243.122	11607.52
243.193	11598.7
243.264	11515.8
243.336	11517.15
243.407	11563.86
243.479	11648.1
243.55	11668.16
243.622	11679.77
243.693	11679.48
243.764	11754.38
243.836	11731.16
243.907	11720.41
243.978	11728.5
244.05	11756.85
244.121	11709.38
244.192	11750.92
244.264	11699.4
244.335	11704.02
244.407	11645.9
244.478	11662.43
244.549	11656.31
244.62	11616.02
244.692	11617.99
244.763	11669.99
244.834	11660.45
244.906	11633.02
244.977	11651.2
245.048	11703.31
245.119	11682
245.191	11653.37
245.262	11583.05
245.333	11668.26
245.405	11690
245.476	11724.99
245.547	11730.67
245.618	11793.81
245.689	11808.56
245.761	11854.2
245.832	11869.19
245.903	11914.84
245.974	11948.24
246.045	11955.09
246.117	12042.38
246.188	12029.46
246.259	12012.93
246.33	12045.37
246.401	12060.98
246.473	12025.55
246.544	12011.28
246.615	12070.43
246.686	12078
246.757	12157.42
246.828	12131.01
246.899	12214.65
246.97	12183.95
247.042	12178.74
247.113	12218.41
247.184	12310.1
247.255	12305.76
247.326	12325.96
247.397	12330.63
247.468	12331.02
247.539	12350.69
247.61	12306.39
247.681	12347.6
247.752	12394.11
247.823	12359.31
247.894	12376.52
247.965	12345.82
248.037	12337.77
248.108	12277.61
248.179	12283.59
248.25	12271.68
248.321	12299.25
248.392	12240.68
248.463	12323.39
248.534	12320.6
248.605	12341.09
248.675	12309.32
248.746	12322.77
248.817	12348.36
248.888	12375.79
248.959	12325.08
249.03	12349.86
249.101	12361.62
249.172	12349.81
249.243	12275.78
249.314	12345.05
249.385	12349.82
249.456	12381.97
249.527	12378.59
249.598	12413.39
249.669	12412.96
249.739	12432.14
249.81	12448.15
249.881	12408.19
249.952	12407.51
250.023	12408.77
250.094	12354.34
250.165	12318.38
250.235	12318.96
250.306	12318.91
250.377	12284.83
250.448	12319.87
250.519	12252.1
250.59	12305.03
250.66	12302.14
250.731	12381.23
250.802	12376.65
250.873	12395.31
250.944	12418.98
251.014	12400.66
251.085	12489.6
251.156	12519.44
251.227	12571.79
251.297	12625.73
251.368	12678.66
251.439	12711.58
251.51	12774.88
251.58	12763.07
251.651	12761.43
251.722	12813.2
251.792	12761.29
251.863	12768.8
251.934	12827.86
252.005	12945.86
252.075	12955.55
252.146	13013.92
252.217	13067.38
252.287	13107.44
252.358	13115.54
252.429	13191.66
252.499	13199.04
252.57	13211.38
252.641	13270.28
252.711	13272.16
252.782	13228.49
252.852	13307.16
252.923	13314.97
252.994	13316.47
253.064	13370.02
253.135	13351.65
253.205	13331.17
253.276	13408.54
253.347	13474.96
253.417	13451.53
253.488	13428.39
253.558	13418.22
253.629	13410.99
253.699	13424.92
253.77	13456.16
253.841	13454.04
253.911	13466.43
253.982	13476.21
254.052	13503.74
254.123	13503.84
254.193	13510.78
254.264	13648.79
254.334	13609.84
254.405	13577.06
254.475	13541.38
254.546	13544.42
254.616	13613.89
254.687	13639.82
254.757	13663.49
254.827	13655.49
254.898	13678.92
254.968	13685.71
255.039	13664.12
255.109	13701
255.18	13669.18
255.25	13594.85
255.321	13620.97
255.391	13576.91
255.461	13663.78
255.532	13578.65
255.602	13573.93
255.673	13521.04
255.743	13484.7
255.813	13413.55
255.884	13452.98
255.954	13495.26
256.024	13567.71
256.095	13573.54
256.165	13539.56
256.235	13559.32
256.306	13551.27
256.376	13604.01
256.446	13647.2
256.517	13686.63
256.587	13734.26
256.657	13755.18
256.728	13782.9
256.798	13799.68
256.868	13797.85
256.938	13765.84
257.009	13814.19
257.079	13849.14
257.149	13946.08
257.219	13878.88
257.29	13922.94
257.36	13871.46
257.43	13908.57
257.5	13840.75
257.571	13825.08
257.641	13868.08
257.711	13835.06
257.781	13866.3
257.852	13881.43
257.922	13819.49
257.992	13822.38
258.062	13812.74
258.132	13859.26
258.202	13860.9
258.273	13870.93
258.343	13936.73
258.413	13925.78
258.483	13928.48
258.553	13890.88
258.623	13868.42
258.693	13907.66
258.764	13976.5
258.834	14048.76
258.904	14069.15
258.974	14056.71
259.044	14064.86
259.114	14091.9
259.184	14116.78
259.254	14121.79
259.324	14064.62
259.394	14118.8
259.464	14193.76
259.535	14208.51
259.605	14195.69
259.675	14193.62
259.745	14228.9
259.815	14212.37
259.885	14214.06
259.955	14328.58
260.025	14320.68
260.095	14325.64
260.165	14350.27
260.235	14409.95
260.305	14392.88
260.375	14353.36
260.445	14449.33
260.515	14521.11
260.585	14570.42
260.655	14581.12
260.725	14628.08
260.795	14668.18
260.865	14731.28
260.934	14705.54
261.004	14732
261.074	14737.84
261.144	14798
261.214	14829.81
261.284	14832.22
261.354	14874.64
261.424	14829.77
261.494	14907.72
261.564	14920.01
261.634	14950.52
261.703	14884
261.773	14917.17
261.843	14958.14
261.913	14946.28
261.983	14887.96
262.053	14907.58
262.123	14904.78
262.192	14855.95
262.262	14897.4
262.332	14849.3
262.402	14881.25
262.472	14893.26
262.541	14834.4
262.611	14884.72
262.681	14857.2
262.751	14896.58
262.821	14901.88
262.89	14877.3
262.96	14893.88
263.03	14971.44
263.1	14995.01
263.169	15011.54
263.239	15043.69
263.309	15115.41
263.379	15150.02
263.448	15172.1
263.518	15189.6
263.588	15206.04
263.657	15285.14
263.727	15327.51
263.797	15342.21
263.867	15341.49
263.936	15303.79
264.006	15367.18
264.076	15363.33
264.145	15365.54
264.215	15352.67
264.285	15396.25
264.354	15351.42
264.424	15343.03
264.494	15288.9
264.563	15274.64
264.633	15358.99
264.702	15374.99
264.772	15305.1
264.842	15302.88
264.911	15337.54
264.981	15298.35
265.05	15316.77
265.12	15308.33
265.19	15312.24
265.259	15362.41
265.329	15395.77
265.398	15415.77
265.468	15518.73
265.537	15505.76
265.607	15542.25
265.676	15592.67
265.746	15612.43
265.815	15676.78
265.885	15690.37
265.955	15684.59
266.024	15682.57
266.094	15615.23
266.163	15673.12
266.232	15756.02
266.302	15754.81
266.371	15784.7
266.441	15809.14
266.51	15864.13
266.58	15873.92
266.649	15860.28
266.719	15909.58
266.788	15938.26
266.858	16006.56
266.927	15934.45
266.996	15968.14
267.066	16000.29
267.135	15966.07
267.205	16001.64
267.274	16017.79
267.343	16067.29
267.413	16079.92
267.482	16151.06
267.552	16220.32
267.621	16172.65
267.69	16120.7
267.76	16161.09
267.829	16180.27
267.898	16202.73
267.968	16177.38
268.037	16219.41
268.106	16272.37
268.176	16237.19
268.245	16246.3
268.314	16249.63
268.384	16314.89
268.453	16334.5
268.522	16358.46
268.592	16426.03
268.661	16417.74
268.73	16449.21
268.799	16437.02
268.869	16521.66
268.938	16471.29
269.007	16465.89
269.076	16494.96
269.146	16559.3
269.215	16581.57
269.284	16655.88
269.353	16653.95
269.422	16660.51
269.492	16657.95
269.561	16575.34
269.63	16615.25
269.699	16611.2
269.768	16629.8
269.838	16649.76
269.907	16695.45
269.976	16668.55
270.045	16606.81
270.114	16644.02
270.183	16647.34
270.253	16686.29
270.322	16639.15
270.391	16660.41
270.46	16730.05
270.529	16767.64
270.598	16801.9
270.667	16811.78
270.736	16783.54
270.806	16824.03
270.875	16887.02
270.944	16891.74
271.013	17022.06
271.082	17046.25
271.151	17090.54
271.22	17049.43
271.289	17053.58
271.358	17054.16
271.427	17086.74
271.496	17115.9
271.565	17113.68
271.634	17146.98
271.703	17270.25
271.772	17333.78
271.841	17357.25
271.91	17323.42
271.979	17356.28
272.048	17328.28
272.117	17378.6
272.186	17377.63
272.255	17417.54
272.324	17458.11
272.393	17496.38
272.462	17494.69
272.531	17512.96
272.6	17520.76
272.669	17597.01
272.738	17614.41
272.807	17651.37
272.876	17638.98
272.945	17794.5
273.013	17859.12
273.082	17919.46
273.151	17829.83
273.22	17865.78
273.289	17884.81
273.358	17971.03
273.427	17974.26
273.496	18028.95
273.564	18062.93
273.633	18122.73
273.702	18118.93
273.771	18136.9
273.84	18166.39
273.909	18205.33
273.977	18242.58
274.046	18243.74
274.115	18304.7
274.184	18293.23
274.253	18319.06
274.322	18399.54
274.39	18332.08
274.459	18319.69
274.528	18271.69
274.597	18291.93
274.665	18320.94
274.734	18399.93
274.803	18399.25
274.872	18425.23
274.94	18421.23
275.009	18568.36
275.078	18566.29
275.147	18601.08
275.215	18617.08
275.284	18695.01
275.353	18698.14
275.421	18664.5
275.49	18779.43
275.559	18784.88
275.627	18827.1
275.696	18837.65
275.765	18873.17
275.833	18896.49
275.902	18950.85
275.971	19033.93
276.039	19125.78
276.108	19192.52
276.177	19230.83
276.245	19246.21
276.314	19279.94
276.383	19344.42
276.451	19260.99
276.52	19314.43
276.588	19395.68
276.657	19460.88
276.725	19466.33
276.794	19511.63
276.863	19596.68
276.931	19560.11
277	19625.84
277.068	19696.92
277.137	19803.28
277.205	19847.71
277.274	19947.8
277.342	20009.39
277.411	19989.54
277.48	19990.07
277.548	19997.05
277.617	20040.72
277.685	20064.62
277.754	20125.24
277.822	20148.13
277.89	20234.6
277.959	20262.16
278.027	20248.62
278.096	20264.33
278.164	20400.54
278.233	20422.61
278.301	20435
278.37	20493.07
278.438	20491
278.507	20540.97
278.575	20494.03
278.643	20529.02
278.712	20513.69
278.78	20517.84
278.849	20597.55
278.917	20687.87
278.985	20710.13
279.054	20761.75
279.122	20845.22
279.191	20878.67
279.259	20913.03
279.327	20881.75
279.396	20972.07
279.464	21002.63
279.532	21070.78
279.601	21094.36
279.669	21128.09
279.737	21219.52
279.806	21275.39
279.874	21357.23
279.942	21397.38
280.011	21427.84
280.079	21497.87
280.147	21595.81
280.215	21670.33
280.284	21706.72
280.352	21702.43
280.42	21769.67
280.488	21783.79
280.557	21799.84
280.625	21855.66
280.693	21893.93
280.761	21956.74
280.83	21946.86
280.898	22035.6
280.966	22016.22
281.034	21959.33
281.102	21965.07
281.171	21983.68
281.239	22064.58
281.307	22075.23
281.375	22081.4
281.443	22219.81
281.512	22246.81
281.58	22310.93
281.648	22286.74
281.716	22318.55
281.784	22355.81
281.852	22376.3
281.92	22413.04
281.989	22498.81
282.057	22490.76
282.125	22681.93
282.193	22711.78
282.261	22757.48
282.329	22778.55
282.397	22835.58
282.465	22876.99
282.533	22960.68
282.601	22976.01
282.67	22938.3
282.738	22960.09
282.806	23040.32
282.874	23026.28
282.942	23082.03
283.01	23102.58
283.078	23170.27
283.146	23210.81
283.214	23290.33
283.282	23353.84
283.35	23441.33
283.418	23461.1
283.486	23522
283.554	23427.25
283.622	23471.95
283.69	23515.35
283.758	23545.49
283.826	23608.57
283.894	23692.14
283.962	23815.98
284.03	23914.94
284.098	23969.72
284.165	23994.03
284.233	24036.32
284.301	24072.83
284.369	24092.37
284.437	24112.82
284.505	24149.48
284.573	24248.16
284.641	24254.72
284.709	24327.67
284.777	24309.29
284.845	24387.21
284.912	24453.3
284.98	24514.12
285.048	24533.61
285.116	24601.87
285.184	24689.87
285.252	24730.93
285.319	24733.82
285.387	24738.6
285.455	24730.83
285.523	24795.77
285.591	24840.67
285.659	24895.77
285.726	24995.23
285.794	24996.39
285.862	25032.67
285.93	25080.77
285.997	25116.38
286.065	25143.98
286.133	25152.43
286.201	25202.51
286.269	25200.05
286.336	25214.38
286.404	25245.07
286.472	25335.85
286.539	25314.33
286.607	25312.54
286.675	25369.4
286.743	25436.43
286.81	25462.45
286.878	25545.75
286.946	25569.49
287.013	25627.54
287.081	25666.98
287.149	25644.19
287.216	25758.73
287.284	25789.43
287.352	25837.94
287.419	25864.92
287.487	25964.66
287.555	26024
287.622	26054.46
287.69	26107.27
287.758	26199.34
287.825	26228.3
287.893	26235.98
287.96	26306.59
288.028	26404.46
288.096	26461.26
288.163	26519.39
288.231	26531.08
288.298	26568.26
288.366	26661.47
288.433	26687.92
288.501	26710.43
288.569	26772.81
288.636	26792.13
288.704	26870.51
288.771	26949.52
288.839	26967.15
288.906	26988.4
288.974	27068.13
289.041	27108.88
289.109	27124.77
289.176	27195.27
289.244	27259.07
289.311	27353.85
289.379	27426.83
289.446	27459.93
289.514	27485.15
289.581	27519.65
289.649	27577.27
289.716	27632.45
289.783	27637.28
289.851	27750.42
289.918	27796.26
289.986	27884.69
290.053	27949.35
290.121	28002.27
290.188	28047.51
290.255	28200.05
290.323	28226.87
290.39	28255.59
290.458	28330.62
290.525	28445.41
290.592	28468.95
290.66	28530.18
290.727	28549.52
290.794	28644.33
290.862	28690.35
290.929	28758.03
290.996	28817.19
291.064	28887.33
291.131	28979.17
291.198	29084.48
291.266	29124.18
291.333	29183.1
291.4	29249.17
291.468	29353.9
291.535	29385.95
291.602	29440.41
291.669	29454.39
291.737	29519.37
291.804	29558.36
291.871	29661.09
291.938	29719
292.006	29855.77
292.073	29933.01
292.14	30024.25
292.207	30035.86
292.275	30086.26
292.342	30153.27
292.409	30282.63
292.476	30411.36
292.543	30422.93
292.611	30460.77
292.678	30568.88
292.745	30698.76
292.812	30769.77
292.879	30790.35
292.946	30849.37
293.014	30940.9
293.081	31015.88
293.148	31115.29
293.215	31207.12
293.282	31233.3
293.349	31310.15
293.416	31288.74
293.484	31373.37
293.551	31443.05
293.618	31553.67
293.685	31696.49
293.752	31728.15
293.819	31762.4
293.886	31777.75
293.953	31851.97
294.02	31933.82
294.087	31993.01
294.154	32014.18
294.221	32107.79
294.288	32168.28
294.356	32287.76
294.423	32356.03
294.49	32371.38
294.557	32465.66
294.624	32487.22
294.691	32604.8
294.758	32658.15
294.825	32732.17
294.892	32767.1
294.959	32820.89
295.026	32888.44
295.093	32907.3
295.16	32968.33
295.226	33021.78
295.293	33142.24
295.36	33206.83
295.427	33303.2
295.494	33398.32
295.561	33480.32
295.628	33611.24
295.695	33712.27
295.762	33764.14
295.829	33848.8
295.896	33964.59
295.963	34034.71
296.03	34132.14
296.096	34190.57
296.163	34274.02
296.23	34380.9
296.297	34484.99
296.364	34533.48
296.431	34609.86
296.498	34644.67
296.564	34768.74
296.631	34828.83
296.698	34839.06
296.765	34953.81
296.832	34966.9
296.899	34970.4
296.965	35085.41
297.032	35060.37
297.099	35176.59
297.166	35258.57
297.233	35299.81
297.299	35335.31
297.366	35379.41
297.433	35433.89
297.5	35516.38
297.566	35567.03
297.633	35607.89
297.7	35665.97
297.767	35721.51
297.833	35785.28
297.9	35844.31
297.967	35845.33
298.033	35947.63
298.1	36095.76
298.167	36120.42
298.234	36186.74
298.3	36280.93
298.367	36305.59
298.434	36386.66
298.5	36387.43
298.567	36423.93
298.634	36466.01
298.7	36569.68
298.767	36642.54
298.834	36740.88
298.9	36782.53
298.967	36820.2
299.033	36901.37
299.1	37000.51
299.167	37092
299.233	37136.23
299.3	37245.84
299.366	37366.89
299.433	37457.32
299.5	37422.02
299.566	37488.77
299.633	37586.74
299.699	37671.82
299.766	37726.1
299.832	37775.88
299.899	37856.93
299.965	37950.06
300.032	37997.79
300.099	38065.24
300.165	38133.09
300.232	38170
300.298	38208.75
300.365	38309.95
300.431	38366
300.498	38381.26
300.564	38457.7
300.631	38535.89
300.697	38628.87
300.763	38669.52
300.83	38700.56
300.896	38792.06
300.963	38868.85
301.029	38936.52
301.096	38992.34
301.162	39073.85
301.229	39110.96
301.295	39125.68
301.361	39181.84
301.428	39238.66
301.494	39230.55
301.561	39281.81
301.627	39337.77
301.693	39401.69
301.76	39441.34
301.826	39484.29
301.892	39572.37
301.959	39632.38
302.025	39673.58
302.092	39697.1
302.158	39774.49
302.224	39838.73
302.291	39860.45
302.357	39898.01
302.423	39939.07
302.49	39947.67
302.556	40022.6
302.622	40079.02
302.688	40175.43
302.755	40266.85
302.821	40344.93
302.887	40435.54
302.954	40475.44
303.02	40552.22
303.086	40639.16
303.152	40684.64
303.219	40707.09
303.285	40775.29
303.351	40850.48
303.417	40901.9
303.483	40921.73
303.55	40943.01
303.616	40983.12
303.682	41022.48
303.748	41058.1
303.815	41143.12
303.881	41239.31
303.947	41261.13
304.013	41315.87
304.079	41325.2
304.145	41312.95
304.212	41353.97
304.278	41380.12
304.344	41414.48
304.41	41415.6
304.476	41411.91
304.542	41442.04
304.608	41517.04
304.674	41504.45
304.741	41529.1
304.807	41590.65
304.873	41663.22
304.939	41762.88
305.005	41746.06
305.071	41797.68
305.137	41846.19
305.203	41805.75
305.269	41840.51
305.335	41915.97
305.401	41941.6
305.467	41979.81
305.533	42061.59
305.599	42133.35
305.666	42199.61
305.732	42253
305.798	42334.63
305.864	42464.95
305.93	42525.87
305.996	42571.77
306.062	42616.84
306.128	42653.32
306.194	42643.01
306.259	42678.75
306.325	42687.11
306.391	42772.59
306.457	42845.33
306.523	42907.77
306.589	43046.62
306.655	43062.71
306.721	43032.32
306.787	43040.92
306.853	43140.82
306.919	43116.17
306.985	43124.92
307.051	43146.22
307.117	43163.34
307.183	43193.54
307.248	43141.93
307.314	43202.98
307.38	43250.84
307.446	43320.58
307.512	43326.52
307.578	43398.64
307.644	43425.63
307.709	43475.25
307.775	43497.57
307.841	43520.19
307.907	43574.09
307.973	43535.17
308.039	43571.45
308.104	43637.99
308.17	43689.93
308.236	43669.35
308.302	43717.69
308.368	43715.21
308.433	43760.2
308.499	43778.83
308.565	43776.88
308.631	43829.75
308.696	43787.82
308.762	43774.15
308.828	43799.21
308.894	43779.76
308.959	43752.47
309.025	43761.03
309.091	43781.71
309.156	43805.4
309.222	43853.18
309.288	43826.52
309.354	43802.98
309.419	43835.19
309.485	43831.73
309.551	43886.51
309.616	43891.33
309.682	43911.37
309.748	43936.95
309.813	43959.24
309.879	43973.25
309.945	43982.97
310.01	43995.43
310.076	44049.81
310.141	44082.95
310.207	44066.94
310.273	44112.8
310.338	44159.31
310.404	44139.12
310.469	44126.66
310.535	44117.32
310.601	44085.6
310.666	44154.69
310.732	44230
310.797	44236.08
310.863	44245.28
310.928	44248.39
310.994	44282.26
311.059	44316.41
311.125	44353.24
311.191	44416.56
311.256	44422.3
311.322	44475.72
311.387	44451.59
311.453	45312.31
311.518	45343.79
311.584	45372.94
311.649	45441.4
311.715	45447.53
311.78	45505.04
311.846	45519.39
311.911	45591.22
311.976	45640.17
312.042	45613.55
312.107	45589.36
312.173	45593.6
312.238	45611.74
312.304	45642.75
312.369	45656.42
312.434	45667.03
312.5	45674.57
312.565	45600.79
312.631	45661.03
312.696	45669.99
312.761	45716.31
312.827	44898.22
312.892	44973.35
312.958	45004.45
313.023	45023.63
313.088	45058.18
313.154	45051.71
313.219	45060.08
313.284	45053.12
313.35	45068.35
313.415	45072.78
313.48	45094.14
313.546	45139.6
313.611	45199.61
313.676	45202.63
313.741	45196.99
313.807	45247.13
313.872	45295.8
313.937	45357.26
314.003	45424.16
314.068	45463.1
314.133	45511.48
314.198	45508.27
314.264	45480.75
314.329	45479.2
314.394	45492.34
314.459	45512.88
314.525	45606.39
314.59	45623.52
314.655	45617.54
314.72	45661.94
314.785	45708.76
314.851	45719.18
314.916	45695.32
314.981	45672.74
315.046	45662.27
315.111	45673.56
315.176	45669.67
315.242	45720.94
315.307	45747.04
315.372	45716.41
315.437	45707.45
315.502	45716.21
315.567	45802.65
315.632	45781.13
315.698	45812.34
315.763	45825
315.828	45824.12
315.893	45822.56
315.958	45840.96
316.023	45833.66
316.088	45791.35
316.153	45735.38
316.218	45731.05
316.283	45680.78
316.348	45652.21
316.413	45659.03
316.479	45620.83
316.544	45509.58
316.609	45396.64
316.674	45269.49
316.739	45127.17
316.804	45023.66
316.869	44897.82
316.934	44735.39
316.999	44627.41
317.064	44434.99
317.129	44277.91
317.194	44131.09
317.259	43950.42
317.324	43751.92
317.389	43575.03
317.454	43409.88
317.518	43266.61
317.583	43159.35
317.648	43044.72
317.713	42884.67
317.778	42657.94
317.843	42516.38
317.908	42347.39
317.973	42170.2
318.038	42045.11
318.103	41900.01
318.168	41741.23
318.233	41589.65
318.297	41374.51
318.362	41186
318.427	41016.21
318.492	40869.6
318.557	40648.47
318.622	40481.37
318.687	40348.92
318.751	40168.24
318.816	40003.55
318.881	39824.08
318.946	39572.43
319.011	39349.73
319.075	39139.19
319.14	38957
319.205	38734.28
319.27	38546.68
319.335	38316.53
319.399	38097.49
319.464	37908.89
319.529	37649.33
319.594	37426.79
319.658	37248.27
319.723	37021.76
319.788	36832.37
319.853	36556.98
319.917	36383.11
319.982	36130.3
320.047	35910.56
320.112	35726.08
320.176	35466.35
320.241	35254.72
320.306	35057.37
320.37	34826.71
320.435	34627.03
320.5	34436.41
320.564	34209.72
320.629	33982.5
320.694	33788.64
320.758	33550.97
320.823	33307.67
320.888	33132.92
320.952	32877.86
321.017	32633.5
321.082	32407.08
321.146	32195
321.211	31993.75
321.275	31750.1
321.34	31498.65
321.405	31253.28
321.469	31001.06
321.534	30763.16
321.598	30495.73
321.663	30289.17
321.727	30081.61
321.792	29814.18
321.857	29552.52
321.921	29319.26
321.986	29067.91
322.05	28774.61
322.115	28548.45
322.179	28311.19
322.244	28008.43
322.308	27795.13
322.373	27538.44
322.437	27301.23
322.502	27103.76
322.566	26841.96
322.631	26620.25
322.695	26390.26
322.76	26139.78
322.824	25922.33
322.889	25676.81
322.953	25422.59
323.018	25092.17
323.082	24776.62
323.146	24507.67
323.211	24220.19
323.275	23965.86
323.34	23701.28
323.404	23471.8
323.468	23196.84
323.533	22935.34
323.597	22672.89
323.662	22381.51
323.726	22152.21
323.79	21876.01
323.855	21539.36
323.919	21266.47
323.983	21003.32
324.048	20609.49
324.112	20784.38
324.177	19955.25
324.241	18863.31
324.305	17795.19
324.37	16750.9
324.434	15736.15
324.498	15448.87
324.562	15137.22
324.627	14775.19
324.691	14431.12
324.755	14036.46
324.82	13597.46
324.884	13117.74
324.948	12644.7
325.012	12065.16
325.077	11339.12
